(1235, 1281, 1294, 1327, 1096, 1136, 1186, 1423)
(1235, 1281, 1294, 1327, 1096, 1136, 1186, 1423)
(1336, 1309, 1394, 1319, 1004, 1202, 1243, 1424)
(1336, 1309, 1394, 1319, 1004, 1202, 1243, 1424)
(1448, 1316, 1283, 1304, 958, 1260, 1160, 1417)
(1448, 1316, 1283, 1304, 958, 1260, 1160, 1417)
(1423, 1390, 1299, 1263, 953, 1290, 1138, 1411)
(1423, 1390, 1299, 1263, 953, 1290, 1138, 1411)
(1387, 1352, 1229, 1138, 687, 1198, 1159, 1280)
(1387, 1352, 1229, 1138, 687, 1198, 1159, 1280)
(1327, 1312, 1279, 794, 652, 1295, 1272, 1240)
(1327, 1312, 1279, 794, 652, 1295, 1272, 1240)
(1426, 1262, 1271, 603, 781, 1236, 1205, 1142)
(1426, 1262, 1271, 603, 781, 1236, 1205, 1142)
(1320, 1306, 1318, 736, 958, 1131, 1238, 1039)
(1320, 1306, 1318, 736, 958, 1131, 1238, 1039)
(1309, 1298, 1285, 948, 1125, 1147, 1429, 1128)
(1309, 1298, 1285, 948, 1125, 1147, 1429, 1128)
(1299, 1228, 1301, 1020, 1354, 1214, 1418, 1289)
(1299, 1228, 1301, 1020, 1354, 1214, 1418, 1289)
(1332, 1224, 1292, 1168, 1346, 1206, 1360, 1340)
(1332, 1224, 1292, 1168, 1346, 1206, 1360, 1340)
(1156, 1288, 1218, 1305, 1425, 1211, 1414, 1464)
(1156, 1288, 1218, 1305, 1425, 1211, 1414, 1464)
(1330, 1332, 1337, 1344, 1408, 1286, 1416, 1525)
(1330, 1332, 1337, 1344, 1408, 1286, 1416, 1525)
(1493, 1457, 1522, 1339, 1388, 1264, 1278, 1469)
(1493, 1457, 1522, 1339, 1388, 1264, 1278, 1469)
(1448, 1431, 1679, 1275, 1193, 1174, 1169, 1536)
(1448, 1431, 1679, 1275, 1193, 1174, 1169, 1536)
(1432, 1349, 1606, 1133, 1152, 1031, 1055, 1410)
(1432, 1349, 1606, 1133, 1152, 1031, 1055, 1410)
(1392, 1281, 1689, 982, 935, 921, 887, 1304)
(1392, 1281, 1689, 982, 935, 921, 887, 1304)
(1162, 1097, 1637, 798, 764, 719, 734, 1140)
(1162, 1097, 1637, 798, 764, 719, 734, 1140)
(829, 726, 1491, 415, 425, 438, 451, 1024)
(829, 726, 1491, 415, 425, 438, 451, 1024)
(696, 633, 1244, 320, 309, 296, 431, 572)
(696, 633, 1244, 320, 309, 296, 431, 572)
(408, 612, 1245, 283, 238, 230, 381, 514)
(408, 612, 1245, 283, 238, 230, 381, 514)
(331, 434, 1074, 215, 207, 160, 319, 378)
(331, 434, 1074, 215, 207, 160, 319, 378)
(267, 357, 885, 169, 152, 103, 261, 349)
(267, 357, 885, 169, 152, 103, 261, 349)
(161, 313, 676, 141, 231, 87, 225, 305)
(161, 313, 676, 141, 231, 87, 225, 305)
(109, 251, 648, 111, 268, 74, 215, 249)
(109, 251, 648, 111, 268, 74, 215, 249)
(128, 212, 549, 106, 320, 60, 116, 218)
(128, 212, 549, 106, 320, 60, 116, 218)
(125, 205, 331, 96, 356, 54, 87, 142)
(125, 205, 331, 96, 356, 54, 87, 142)
(120, 186, 240, 95, 350, 52, 66, 109)
(120, 186, 240, 95, 350, 52, 66, 109)
(134, 185, 187, 63, 298, 53, 66, 146)
(134, 185, 187, 63, 298, 53, 66, 146)
(161, 137, 195, 66, 262, 48, 85, 160)
(161, 137, 195, 66, 262, 48, 85, 160)
(139, 143, 183, 62, 197, 40, 279, 200)
(139, 143, 183, 62, 197, 40, 279, 200)
(147, 137, 152, 64, 119, 42, 341, 203)
(147, 137, 152, 64, 119, 42, 341, 203)
(153, 144, 140, 64, 109, 42, 366, 200)
(153, 144, 140, 64, 109, 42, 366, 200)
(136, 119, 135, 59, 160, 41, 376, 332)
(136, 119, 135, 59, 160, 41, 376, 332)
(106, 120, 112, 54, 240, 39, 383, 496)
(106, 120, 112, 54, 240, 39, 383, 496)
(108, 116, 87, 45, 267, 42, 302, 520)
(108, 116, 87, 45, 267, 42, 302, 520)
(105, 124, 85, 43, 264, 43, 247, 602)
(105, 124, 85, 43, 264, 43, 247, 602)
(94, 124, 87, 38, 273, 42, 220, 703)
(94, 124, 87, 38, 273, 42, 220, 703)
(100, 122, 80, 39, 244, 38, 206, 670)
(100, 122, 80, 39, 244, 38, 206, 670)
(99, 115, 67, 35, 198, 41, 188, 561)
(99, 115, 67, 35, 198, 41, 188, 561)
(88, 115, 69, 35, 201, 39, 139, 529)
(88, 115, 69, 35, 201, 39, 139, 529)
(82, 119, 60, 41, 318, 36, 107, 438)
(82, 119, 60, 41, 318, 36, 107, 438)
(85, 121, 62, 43, 352, 37, 240, 294)
(85, 121, 62, 43, 352, 37, 240, 294)
(85, 121, 60, 48, 359, 45, 490, 641)
(85, 121, 60, 48, 359, 45, 490, 641)
(81, 137, 62, 47, 357, 44, 543, 764)
(81, 137, 62, 47, 357, 44, 543, 764)
(78, 150, 474, 46, 334, 45, 718, 1130)
(78, 150, 474, 46, 334, 45, 718, 1130)
(77, 163, 798, 40, 224, 54, 730, 1237)
(77, 163, 798, 40, 224, 54, 730, 1237)
(79, 395, 950, 43, 159, 58, 701, 1309)
(79, 395, 950, 43, 159, 58, 701, 1309)
(127, 420, 1044, 36, 131, 52, 557, 1173)
(127, 420, 1044, 36, 131, 52, 557, 1173)
(189, 523, 1202, 37, 90, 55, 508, 1120)
(189, 523, 1202, 37, 90, 55, 508, 1120)
(211, 572, 1279, 40, 93, 57, 193, 828)
(211, 572, 1279, 40, 93, 57, 193, 828)
(215, 692, 1268, 42, 92, 48, 139, 674)
(215, 692, 1268, 42, 92, 48, 139, 674)
(227, 740, 1448, 41, 210, 59, 105, 497)
(227, 740, 1448, 41, 210, 59, 105, 497)
(204, 866, 1542, 41, 439, 102, 363, 479)
(204, 866, 1542, 41, 439, 102, 363, 479)
(181, 951, 1521, 49, 644, 150, 585, 421)
(181, 951, 1521, 49, 644, 150, 585, 421)
(185, 1136, 1582, 51, 777, 174, 1031, 262)
(185, 1136, 1582, 51, 777, 174, 1031, 262)
(201, 1190, 1648, 49, 968, 245, 1096, 205)
(201, 1190, 1648, 49, 968, 245, 1096, 205)
(187, 1114, 1587, 46, 1114, 284, 1201, 193)
(187, 1114, 1587, 46, 1114, 284, 1201, 193)
(195, 1032, 1566, 52, 1263, 294, 1226, 186)
(195, 1032, 1566, 52, 1263, 294, 1226, 186)
(180, 905, 1633, 45, 1202, 287, 1242, 198)
(180, 905, 1633, 45, 1202, 287, 1242, 198)
(193, 628, 1529, 48, 1139, 282, 927, 188)
(193, 628, 1529, 48, 1139, 282, 927, 188)
(197, 344, 1378, 89, 985, 226, 853, 206)
(197, 344, 1378, 89, 985, 226, 853, 206)
(194, 348, 1352, 106, 794, 175, 704, 207)
(194, 348, 1352, 106, 794, 175, 704, 207)
(183, 288, 1254, 114, 360, 137, 563, 205)
(183, 288, 1254, 114, 360, 137, 563, 205)
(169, 281, 1101, 117, 248, 101, 255, 174)
(169, 281, 1101, 117, 248, 101, 255, 174)
(114, 249, 1021, 125, 130, 84, 172, 125)
(114, 249, 1021, 125, 130, 84, 172, 125)
(56, 234, 968, 103, 107, 78, 143, 78)
(56, 234, 968, 103, 107, 78, 143, 78)
(52, 163, 687, 86, 87, 66, 103, 51)
(52, 163, 687, 86, 87, 66, 103, 51)
(48, 139, 581, 74, 72, 64, 76, 48)
(48, 139, 581, 74, 72, 64, 76, 48)
(46, 139, 457, 76, 62, 66, 63, 36)
(46, 139, 457, 76, 62, 66, 63, 36)
(44, 128, 340, 75, 54, 46, 62, 40)
(44, 128, 340, 75, 54, 46, 62, 40)
(40, 122, 283, 78, 41, 50, 68, 45)
(40, 122, 283, 78, 41, 50, 68, 45)
(39, 135, 253, 78, 38, 51, 66, 46)
(39, 135, 253, 78, 38, 51, 66, 46)
(39, 141, 262, 76, 77, 56, 77, 54)
(39, 141, 262, 76, 77, 56, 77, 54)
(39, 121, 237, 74, 78, 56, 80, 63)
(39, 121, 237, 74, 78, 56, 80, 63)
(44, 134, 234, 60, 81, 57, 81, 62)
(44, 134, 234, 60, 81, 57, 81, 62)
(44, 139, 200, 54, 82, 59, 72, 57)
(44, 139, 200, 54, 82, 59, 72, 57)
(44, 142, 242, 52, 83, 62, 70, 54)
(44, 142, 242, 52, 83, 62, 70, 54)
(43, 168, 252, 52, 48, 56, 48, 48)
(43, 168, 252, 52, 48, 56, 48, 48)
(395, 178, 250, 43, 45, 53, 44, 37)
(395, 178, 250, 43, 45, 53, 44, 37)
(456, 172, 247, 39, 38, 50, 42, 42)
(456, 172, 247, 39, 38, 50, 42, 42)
(463, 171, 238, 37, 37, 44, 40, 49)
(463, 171, 238, 37, 37, 44, 40, 49)
(467, 160, 190, 37, 38, 36, 34, 116)
(467, 160, 190, 37, 38, 36, 34, 116)
(471, 147, 114, 35, 35, 38, 30, 116)
(471, 147, 114, 35, 35, 38, 30, 116)
(266, 153, 94, 34, 36, 39, 31, 124)
(266, 153, 94, 34, 36, 39, 31, 124)
(134, 160, 86, 36, 38, 40, 28, 122)
(134, 160, 86, 36, 38, 40, 28, 122)
(108, 158, 73, 32, 37, 40, 29, 120)
(108, 158, 73, 32, 37, 40, 29, 120)
(93, 179, 86, 31, 35, 39, 29, 59)
(93, 179, 86, 31, 35, 39, 29, 59)
(68, 165, 96, 32, 35, 37, 29, 58)
(68, 165, 96, 32, 35, 37, 29, 58)
(42, 149, 92, 33, 38, 34, 26, 43)
(42, 149, 92, 33, 38, 34, 26, 43)
(39, 134, 84, 31, 37, 35, 34, 48)
(39, 134, 84, 31, 37, 35, 34, 48)
(40, 132, 83, 29, 37, 34, 61, 47)
(40, 132, 83, 29, 37, 34, 61, 47)
(44, 98, 69, 30, 36, 31, 70, 47)
(44, 98, 69, 30, 36, 31, 70, 47)
(41, 110, 53, 28, 35, 31, 73, 44)
(41, 110, 53, 28, 35, 31, 73, 44)
(39, 95, 57, 26, 28, 34, 73, 37)
(39, 95, 57, 26, 28, 34, 73, 37)
(40, 96, 61, 32, 29, 33, 73, 33)
(40, 96, 61, 32, 29, 33, 73, 33)
(39, 97, 62, 33, 28, 32, 53, 32)
(39, 97, 62, 33, 28, 32, 53, 32)
(36, 96, 63, 34, 26, 30, 41, 34)
(36, 96, 63, 34, 26, 30, 41, 34)
(39, 80, 67, 36, 31, 33, 52, 39)
(39, 80, 67, 36, 31, 33, 52, 39)
(44, 93, 115, 42, 43, 46, 56, 45)
(44, 93, 115, 42, 43, 46, 56, 45)
(43, 94, 130, 51, 48, 44, 56, 43)
(43, 94, 130, 51, 48, 44, 56, 43)
(41, 91, 137, 51, 72, 48, 56, 44)
(41, 91, 137, 51, 72, 48, 56, 44)
(41, 92, 144, 51, 74, 53, 55, 42)
(41, 92, 144, 51, 74, 53, 55, 42)
(54, 82, 145, 51, 79, 55, 43, 38)
(54, 82, 145, 51, 79, 55, 43, 38)
(52, 63, 181, 49, 74, 47, 342, 38)
(52, 63, 181, 49, 74, 47, 342, 38)
(52, 68, 530, 35, 73, 48, 401, 37)
(52, 68, 530, 35, 73, 48, 401, 37)
(53, 567, 730, 41, 81, 79, 461, 67)
(53, 567, 730, 41, 81, 79, 461, 67)
(61, 953, 772, 46, 93, 92, 682, 85)
(61, 953, 772, 46, 93, 92, 682, 85)
(51, 1143, 902, 48, 102, 103, 976, 95)
(51, 1143, 902, 48, 102, 103, 976, 95)
(107, 1291, 1084, 59, 137, 144, 1037, 120)
(107, 1291, 1084, 59, 137, 144, 1037, 120)
(702, 1398, 1187, 80, 188, 225, 1213, 172)
(702, 1398, 1187, 80, 188, 225, 1213, 172)
(977, 1443, 1239, 79, 188, 239, 1271, 173)
(977, 1443, 1239, 79, 188, 239, 1271, 173)
(1230, 1385, 1364, 78, 196, 267, 1231, 178)
(1230, 1385, 1364, 78, 196, 267, 1231, 178)
(1442, 1354, 1481, 87, 193, 291, 1105, 176)
(1442, 1354, 1481, 87, 193, 291, 1105, 176)
(1635, 1322, 1553, 94, 195, 289, 1027, 179)
(1635, 1322, 1553, 94, 195, 289, 1027, 179)
(1603, 1336, 1491, 83, 158, 237, 825, 140)
(1603, 1336, 1491, 83, 158, 237, 825, 140)
(1539, 1279, 1460, 88, 156, 221, 711, 136)
(1539, 1279, 1460, 88, 156, 221, 711, 136)
(1486, 1395, 1341, 85, 166, 188, 610, 127)
(1486, 1395, 1341, 85, 166, 188, 610, 127)
(1287, 1365, 1132, 82, 180, 141, 428, 122)
(1287, 1365, 1132, 82, 180, 141, 428, 122)
(1041, 1269, 845, 66, 169, 105, 341, 90)
(1041, 1269, 845, 66, 169, 105, 341, 90)
(847, 1272, 713, 58, 162, 100, 229, 77)
(847, 1272, 713, 58, 162, 100, 229, 77)
(884, 1359, 804, 49, 199, 133, 189, 111)
(884, 1359, 804, 49, 199, 133, 189, 111)
(969, 1175, 947, 60, 189, 124, 139, 106)
(969, 1175, 947, 60, 189, 124, 139, 106)
(1118, 1275, 1069, 92, 192, 141, 143, 135)
(1118, 1275, 1069, 92, 192, 141, 143, 135)
(1335, 1435, 1170, 448, 217, 159, 128, 248)
(1335, 1435, 1170, 448, 217, 159, 128, 248)
(1465, 1406, 1312, 911, 232, 186, 154, 400)
(1465, 1406, 1312, 911, 232, 186, 154, 400)
(1490, 1347, 1297, 1181, 195, 166, 166, 702)
(1490, 1347, 1297, 1181, 195, 166, 166, 702)
(1557, 1363, 1382, 1464, 195, 194, 192, 778)
(1557, 1363, 1382, 1464, 195, 194, 192, 778)
(1559, 1236, 1347, 1671, 194, 211, 208, 811)
(1559, 1236, 1347, 1671, 194, 211, 208, 811)
(1392, 1277, 1274, 1737, 168, 211, 208, 801)
(1392, 1277, 1274, 1737, 168, 211, 208, 801)
(1266, 1191, 1103, 1552, 142, 187, 196, 738)
(1266, 1191, 1103, 1552, 142, 187, 196, 738)
(1107, 1056, 929, 1360, 140, 179, 180, 453)
(1107, 1056, 929, 1360, 140, 179, 180, 453)
(697, 898, 596, 1050, 125, 147, 141, 305)
(697, 898, 596, 1050, 125, 147, 141, 305)
(402, 823, 428, 672, 93, 99, 101, 181)
(402, 823, 428, 672, 93, 99, 101, 181)
(324, 470, 364, 183, 50, 68, 92, 83)
(324, 470, 364, 183, 50, 68, 92, 83)
(256, 510, 325, 116, 53, 62, 64, 64)
(256, 510, 325, 116, 53, 62, 64, 64)
(204, 461, 366, 84, 56, 62, 80, 54)
(204, 461, 366, 84, 56, 62, 80, 54)
(169, 503, 559, 80, 58, 53, 84, 50)
(169, 503, 559, 80, 58, 53, 84, 50)
(150, 623, 854, 57, 61, 55, 84, 48)
(150, 623, 854, 57, 61, 55, 84, 48)
(116, 578, 883, 55, 60, 53, 93, 52)
(116, 578, 883, 55, 60, 53, 93, 52)
(115, 508, 895, 57, 58, 61, 119, 55)
(115, 508, 895, 57, 58, 61, 119, 55)
(114, 507, 876, 54, 67, 60, 115, 56)
(114, 507, 876, 54, 67, 60, 115, 56)
(76, 461, 749, 518, 72, 60, 122, 56)
(76, 461, 749, 518, 72, 60, 122, 56)
(68, 251, 388, 661, 80, 60, 141, 58)
(68, 251, 388, 661, 80, 60, 141, 58)
(52, 138, 314, 690, 85, 60, 140, 57)
(52, 138, 314, 690, 85, 60, 140, 57)
(49, 133, 262, 694, 120, 56, 128, 54)
(49, 133, 262, 694, 120, 56, 128, 54)
(44, 108, 206, 706, 115, 53, 129, 58)
(44, 108, 206, 706, 115, 53, 129, 58)
(46, 111, 203, 486, 112, 53, 128, 60)
(46, 111, 203, 486, 112, 53, 128, 60)
(49, 98, 156, 264, 129, 53, 107, 56)
(49, 98, 156, 264, 129, 53, 107, 56)
(43, 94, 100, 215, 127, 53, 99, 60)
(43, 94, 100, 215, 127, 53, 99, 60)
(46, 102, 91, 225, 97, 48, 90, 59)
(46, 102, 91, 225, 97, 48, 90, 59)
(43, 99, 85, 189, 95, 45, 88, 51)
(43, 99, 85, 189, 95, 45, 88, 51)
(44, 89, 82, 180, 91, 45, 76, 43)
(44, 89, 82, 180, 91, 45, 76, 43)
(52, 102, 86, 180, 53, 43, 71, 44)
(52, 102, 86, 180, 53, 43, 71, 44)
(52, 93, 82, 130, 48, 41, 70, 34)
(52, 93, 82, 130, 48, 41, 70, 34)
(48, 86, 74, 87, 38, 38, 68, 36)
(48, 86, 74, 87, 38, 38, 68, 36)
(49, 142, 81, 74, 43, 39, 61, 36)
(49, 142, 81, 74, 43, 39, 61, 36)
(46, 170, 90, 67, 46, 40, 59, 40)
(46, 170, 90, 67, 46, 40, 59, 40)
(46, 168, 122, 52, 45, 40, 57, 37)
(46, 168, 122, 52, 45, 40, 57, 37)
(54, 166, 124, 592, 49, 41, 61, 44)
(54, 166, 124, 592, 49, 41, 61, 44)
(57, 169, 127, 616, 49, 40, 62, 45)
(57, 169, 127, 616, 49, 40, 62, 45)
(58, 129, 123, 710, 42, 41, 59, 51)
(58, 129, 123, 710, 42, 41, 59, 51)
(63, 91, 136, 731, 37, 38, 61, 51)
(63, 91, 136, 731, 37, 38, 61, 51)
(59, 99, 116, 743, 44, 40, 70, 55)
(59, 99, 116, 743, 44, 40, 70, 55)
(56, 111, 124, 455, 51, 42, 72, 52)
(56, 111, 124, 455, 51, 42, 72, 52)
(52, 103, 123, 431, 67, 45, 73, 51)
(52, 103, 123, 431, 67, 45, 73, 51)
(57, 97, 144, 265, 75, 43, 71, 46)
(57, 97, 144, 265, 75, 43, 71, 46)
(59, 94, 142, 202, 132, 46, 71, 47)
(59, 94, 142, 202, 132, 46, 71, 47)
(61, 83, 168, 152, 137, 42, 61, 43)
(61, 83, 168, 152, 137, 42, 61, 43)
(63, 93, 232, 154, 164, 39, 58, 43)
(63, 93, 232, 154, 164, 39, 58, 43)
(86, 106, 263, 134, 170, 42, 63, 51)
(86, 106, 263, 134, 170, 42, 63, 51)
(90, 112, 311, 95, 174, 50, 60, 53)
(90, 112, 311, 95, 174, 50, 60, 53)
(91, 112, 335, 104, 147, 55, 64, 67)
(91, 112, 335, 104, 147, 55, 64, 67)
(91, 113, 358, 103, 143, 60, 65, 72)
(91, 113, 358, 103, 143, 60, 65, 72)
(99, 111, 341, 93, 111, 63, 76, 89)
(99, 111, 341, 93, 111, 63, 76, 89)
(107, 158, 417, 91, 100, 63, 72, 97)
(107, 158, 417, 91, 100, 63, 72, 97)
(133, 159, 457, 87, 101, 69, 92, 112)
(133, 159, 457, 87, 101, 69, 92, 112)
(146, 167, 571, 90, 100, 84, 127, 121)
(146, 167, 571, 90, 100, 84, 127, 121)
(146, 166, 696, 102, 117, 91, 139, 127)
(146, 166, 696, 102, 117, 91, 139, 127)
(145, 267, 754, 113, 123, 98, 139, 122)
(145, 267, 754, 113, 123, 98, 139, 122)
(130, 265, 722, 120, 131, 106, 141, 123)
(130, 265, 722, 120, 131, 106, 141, 123)
(103, 276, 676, 122, 132, 106, 138, 115)
(103, 276, 676, 122, 132, 106, 138, 115)
(83, 301, 593, 121, 135, 99, 120, 105)
(83, 301, 593, 121, 135, 99, 120, 105)
(82, 306, 416, 118, 122, 95, 106, 100)
(82, 306, 416, 118, 122, 95, 106, 100)
(84, 220, 298, 116, 124, 95, 107, 99)
(84, 220, 298, 116, 124, 95, 107, 99)
(100, 194, 263, 121, 119, 94, 106, 102)
(100, 194, 263, 121, 119, 94, 106, 102)
(99, 178, 260, 121, 112, 92, 100, 101)
(99, 178, 260, 121, 112, 92, 100, 101)
(99, 131, 208, 114, 102, 88, 87, 96)
(99, 131, 208, 114, 102, 88, 87, 96)
(99, 144, 204, 111, 107, 85, 89, 96)
(99, 144, 204, 111, 107, 85, 89, 96)
(87, 139, 184, 99, 105, 90, 95, 98)
(87, 139, 184, 99, 105, 90, 95, 98)
(72, 130, 176, 74, 95, 81, 113, 88)
(72, 130, 176, 74, 95, 81, 113, 88)
(70, 123, 207, 65, 91, 76, 115, 84)
(70, 123, 207, 65, 91, 76, 115, 84)
(65, 113, 212, 59, 83, 70, 111, 81)
(65, 113, 212, 59, 83, 70, 111, 81)
(66, 76, 206, 55, 69, 66, 108, 79)
(66, 76, 206, 55, 69, 66, 108, 79)
(65, 67, 189, 52, 52, 46, 103, 67)
(65, 67, 189, 52, 52, 46, 103, 67)
(53, 62, 185, 52, 47, 45, 80, 58)
(53, 62, 185, 52, 47, 45, 80, 58)
(48, 66, 144, 48, 39, 44, 76, 53)
(48, 66, 144, 48, 39, 44, 76, 53)
(49, 80, 111, 52, 42, 46, 86, 49)
(49, 80, 111, 52, 42, 46, 86, 49)
(42, 89, 203, 52, 41, 45, 87, 48)
(42, 89, 203, 52, 41, 45, 87, 48)
(38, 92, 207, 56, 38, 41, 74, 43)
(38, 92, 207, 56, 38, 41, 74, 43)
(41, 93, 234, 61, 49, 44, 80, 45)
(41, 93, 234, 61, 49, 44, 80, 45)
(41, 97, 242, 62, 60, 45, 85, 46)
(41, 97, 242, 62, 60, 45, 85, 46)
(41, 94, 251, 58, 69, 45, 77, 49)
(41, 94, 251, 58, 69, 45, 77, 49)
(42, 87, 182, 60, 83, 47, 83, 45)
(42, 87, 182, 60, 83, 47, 83, 45)
(46, 113, 189, 61, 128, 52, 91, 52)
(46, 113, 189, 61, 128, 52, 91, 52)
(47, 122, 167, 55, 128, 51, 87, 52)
(47, 122, 167, 55, 128, 51, 87, 52)
(49, 148, 161, 58, 138, 51, 82, 56)
(49, 148, 161, 58, 138, 51, 82, 56)
(50, 143, 152, 60, 141, 48, 77, 55)
(50, 143, 152, 60, 141, 48, 77, 55)
(54, 151, 152, 60, 141, 51, 83, 61)
(54, 151, 152, 60, 141, 51, 83, 61)
(54, 141, 158, 59, 125, 51, 77, 61)
(54, 141, 158, 59, 125, 51, 77, 61)
(55, 143, 149, 65, 133, 48, 78, 62)
(55, 143, 149, 65, 133, 48, 78, 62)
(52, 115, 141, 66, 120, 48, 83, 62)
(52, 115, 141, 66, 120, 48, 83, 62)
(54, 134, 157, 77, 119, 48, 99, 60)
(54, 134, 157, 77, 119, 48, 99, 60)
(49, 133, 158, 76, 122, 51, 89, 55)
(49, 133, 158, 76, 122, 51, 89, 55)
(50, 129, 146, 76, 104, 45, 88, 50)
(50, 129, 146, 76, 104, 45, 88, 50)
(48, 125, 140, 71, 92, 46, 82, 45)
(48, 125, 140, 71, 92, 46, 82, 45)
(48, 127, 139, 68, 89, 46, 74, 39)
(48, 127, 139, 68, 89, 46, 74, 39)
(44, 131, 126, 52, 79, 45, 55, 40)
(44, 131, 126, 52, 79, 45, 55, 40)
(48, 124, 125, 57, 54, 33, 56, 39)
(48, 124, 125, 57, 54, 33, 56, 39)
(47, 117, 110, 52, 42, 38, 58, 37)
(47, 117, 110, 52, 42, 38, 58, 37)
(48, 114, 113, 54, 36, 39, 62, 39)
(48, 114, 113, 54, 36, 39, 62, 39)
(43, 108, 110, 53, 60, 40, 67, 38)
(43, 108, 110, 53, 60, 40, 67, 38)
(43, 76, 94, 53, 72, 42, 64, 33)
(43, 76, 94, 53, 72, 42, 64, 33)
(40, 76, 90, 45, 80, 44, 70, 33)
(40, 76, 90, 45, 80, 44, 70, 33)
(36, 78, 88, 53, 82, 41, 72, 36)
(36, 78, 88, 53, 82, 41, 72, 36)
(35, 85, 84, 50, 82, 43, 73, 34)
(35, 85, 84, 50, 82, 43, 73, 34)
(36, 113, 99, 51, 67, 40, 76, 34)
(36, 113, 99, 51, 67, 40, 76, 34)
(42, 116, 114, 53, 56, 41, 78, 39)
(42, 116, 114, 53, 56, 41, 78, 39)
(40, 113, 118, 51, 46, 38, 70, 37)
(40, 113, 118, 51, 46, 38, 70, 37)
(44, 124, 127, 49, 45, 43, 74, 41)
(44, 124, 127, 49, 45, 43, 74, 41)
(47, 145, 141, 52, 47, 40, 128, 47)
(47, 145, 141, 52, 47, 40, 128, 47)
(49, 136, 143, 53, 46, 42, 140, 48)
(49, 136, 143, 53, 46, 42, 140, 48)
(45, 135, 130, 56, 43, 42, 171, 46)
(45, 135, 130, 56, 43, 42, 171, 46)
(47, 143, 128, 56, 43, 43, 177, 47)
(47, 143, 128, 56, 43, 43, 177, 47)
(46, 136, 121, 52, 41, 39, 175, 45)
(46, 136, 121, 52, 41, 39, 175, 45)
(46, 106, 104, 50, 38, 44, 142, 40)
(46, 106, 104, 50, 38, 44, 142, 40)
(44, 95, 105, 54, 38, 45, 126, 42)
(44, 95, 105, 54, 38, 45, 126, 42)
(44, 89, 107, 49, 42, 51, 81, 41)
(44, 89, 107, 49, 42, 51, 81, 41)
(42, 78, 101, 52, 43, 63, 74, 42)
(42, 78, 101, 52, 43, 63, 74, 42)
(43, 99, 103, 59, 45, 66, 71, 41)
(43, 99, 103, 59, 45, 66, 71, 41)
(38, 97, 121, 61, 54, 74, 68, 44)
(38, 97, 121, 61, 54, 74, 68, 44)
(46, 128, 112, 65, 72, 90, 74, 61)
(46, 128, 112, 65, 72, 90, 74, 61)
(63, 138, 129, 79, 79, 90, 76, 74)
(63, 138, 129, 79, 79, 90, 76, 74)
(65, 138, 144, 77, 82, 84, 69, 76)
(65, 138, 144, 77, 82, 84, 69, 76)
(66, 124, 149, 75, 84, 83, 70, 77)
(66, 124, 149, 75, 84, 83, 70, 77)
(75, 147, 140, 80, 88, 78, 80, 93)
(75, 147, 140, 80, 88, 78, 80, 93)
(74, 192, 160, 80, 92, 89, 80, 89)
(74, 192, 160, 80, 92, 89, 80, 89)
(69, 206, 157, 71, 86, 84, 83, 91)
(69, 206, 157, 71, 86, 84, 83, 91)
(77, 229, 181, 78, 92, 104, 89, 101)
(77, 229, 181, 78, 92, 104, 89, 101)
(79, 237, 186, 81, 102, 143, 91, 103)
(79, 237, 186, 81, 102, 143, 91, 103)
(75, 265, 193, 79, 101, 151, 83, 89)
(75, 265, 193, 79, 101, 151, 83, 89)
(81, 260, 192, 85, 90, 143, 94, 90)
(81, 260, 192, 85, 90, 143, 94, 90)
(81, 259, 191, 85, 95, 182, 91, 80)
(81, 259, 191, 85, 95, 182, 91, 80)
(73, 250, 171, 85, 89, 218, 92, 69)
(73, 250, 171, 85, 89, 218, 92, 69)
(70, 247, 167, 88, 74, 196, 89, 66)
(70, 247, 167, 88, 74, 196, 89, 66)
(66, 211, 153, 84, 70, 193, 85, 67)
(66, 211, 153, 84, 70, 193, 85, 67)
(56, 161, 136, 72, 68, 189, 69, 59)
(56, 161, 136, 72, 68, 189, 69, 59)
(49, 140, 131, 70, 61, 159, 66, 61)
(49, 140, 131, 70, 61, 159, 66, 61)
(49, 140, 131, 70, 61, 159, 66, 61)
(45, 118, 118, 64, 76, 102, 64, 57)
(45, 118, 118, 64, 76, 102, 64, 57)
(43, 105, 107, 56, 77, 104, 64, 54)
(43, 105, 107, 56, 77, 104, 64, 54)
(42, 86, 104, 53, 71, 97, 78, 53)
(42, 86, 104, 53, 71, 97, 78, 53)
(39, 84, 101, 54, 66, 93, 84, 48)
(34, 76, 94, 51, 65, 82, 81, 41)
(34, 76, 94, 51, 65, 82, 81, 41)
(37, 78, 86, 50, 44, 68, 111, 43)
(37, 78, 86, 50, 44, 68, 111, 43)
(41, 85, 81, 46, 37, 58, 114, 45)
(41, 85, 81, 46, 37, 58, 114, 45)
(41, 85, 81, 46, 37, 58, 114, 45)
(38, 116, 88, 46, 37, 61, 108, 43)
(38, 116, 88, 46, 37, 61, 108, 43)
(42, 135, 97, 42, 38, 63, 125, 48)
(42, 135, 97, 42, 38, 63, 125, 48)
(46, 192, 113, 42, 60, 69, 133, 50)
(46, 192, 113, 42, 60, 69, 133, 50)
(51, 205, 150, 46, 79, 59, 110, 51)
(51, 205, 150, 46, 79, 59, 110, 51)
(53, 253, 172, 49, 87, 60, 109, 50)
(53, 253, 172, 49, 87, 60, 109, 50)
(64, 291, 229, 63, 89, 58, 110, 51)
(64, 291, 229, 63, 89, 58, 110, 51)
(69, 295, 257, 69, 90, 53, 85, 50)
(69, 295, 257, 69, 90, 53, 85, 50)
(68, 328, 258, 72, 77, 47, 73, 48)
(68, 328, 258, 72, 77, 47, 73, 48)
(66, 343, 248, 71, 57, 45, 74, 41)
(66, 343, 248, 71, 57, 45, 74, 41)
(66, 317, 240, 71, 49, 44, 72, 40)
(66, 317, 240, 71, 49, 44, 72, 40)
(69, 334, 211, 62, 49, 42, 82, 46)
(69, 334, 211, 62, 49, 42, 82, 46)
(71, 348, 186, 63, 66, 42, 82, 43)
(71, 348, 186, 63, 66, 42, 82, 43)
(74, 305, 181, 60, 69, 41, 88, 55)
(74, 305, 181, 60, 69, 41, 88, 55)
(91, 356, 245, 74, 72, 43, 86, 62)
(91, 356, 245, 74, 72, 43, 86, 62)
(94, 362, 260, 77, 71, 41, 89, 60)
(94, 362, 260, 77, 71, 41, 89, 60)
(86, 315, 247, 77, 69, 41, 83, 61)
(86, 315, 247, 77, 69, 41, 83, 61)
(83, 297, 240, 76, 50, 39, 89, 63)
(83, 297, 240, 76, 50, 39, 89, 63)
(88, 304, 261, 86, 40, 40, 87, 57)
(88, 304, 261, 86, 40, 40, 87, 57)
(71, 218, 219, 73, 40, 42, 84, 55)
(71, 218, 219, 73, 40, 42, 84, 55)
(64, 198, 214, 69, 43, 49, 108, 56)
(64, 198, 214, 69, 43, 49, 108, 56)
(65, 223, 236, 71, 48, 50, 106, 50)
(65, 223, 236, 71, 48, 50, 106, 50)
(64, 226, 246, 71, 52, 52, 101, 49)
(64, 226, 246, 71, 52, 52, 101, 49)
(56, 207, 234, 62, 58, 54, 98, 48)
(56, 207, 234, 62, 58, 54, 98, 48)
(55, 216, 221, 61, 61, 56, 100, 49)
(55, 216, 221, 61, 61, 56, 100, 49)
(58, 213, 208, 59, 59, 51, 72, 53)
(58, 213, 208, 59, 59, 51, 72, 53)
(60, 170, 177, 57, 54, 48, 65, 53)
(60, 170, 177, 57, 54, 48, 65, 53)
(60, 165, 168, 54, 50, 46, 67, 51)
(60, 165, 168, 54, 50, 46, 67, 51)
(58, 164, 151, 47, 43, 40, 66, 46)
(58, 164, 151, 47, 43, 40, 66, 46)
(60, 173, 152, 49, 32, 35, 67, 47)
(60, 173, 152, 49, 32, 35, 67, 47)
(57, 176, 153, 54, 30, 35, 68, 41)
(57, 176, 153, 54, 30, 35, 68, 41)
(52, 174, 148, 51, 29, 34, 67, 41)
(52, 174, 148, 51, 29, 34, 67, 41)
(48, 171, 146, 46, 30, 34, 63, 45)
(48, 171, 146, 46, 30, 34, 63, 45)
(45, 157, 161, 47, 35, 43, 78, 51)
(45, 157, 161, 47, 35, 43, 78, 51)
(45, 126, 158, 49, 36, 42, 76, 48)
(45, 126, 158, 49, 36, 42, 76, 48)
(42, 115, 151, 42, 37, 40, 70, 47)
(42, 115, 151, 42, 37, 40, 70, 47)
(42, 117, 147, 42, 38, 43, 70, 49)
(42, 117, 147, 42, 38, 43, 70, 49)
(41, 101, 145, 44, 40, 45, 71, 48)
(41, 101, 145, 44, 40, 45, 71, 48)
(43, 101, 126, 42, 39, 44, 56, 62)
(43, 101, 126, 42, 39, 44, 56, 62)
(40, 99, 131, 38, 41, 51, 58, 80)
(40, 99, 131, 38, 41, 51, 58, 80)
(45, 101, 132, 39, 41, 53, 63, 82)
(45, 101, 132, 39, 41, 53, 63, 82)
(47, 98, 134, 40, 44, 65, 65, 85)
(47, 98, 134, 40, 44, 65, 65, 85)
(50, 90, 124, 41, 47, 74, 72, 85)
(50, 90, 124, 41, 47, 74, 72, 85)
(51, 77, 122, 46, 48, 77, 72, 72)
(51, 77, 122, 46, 48, 77, 72, 72)
(48, 68, 101, 49, 48, 80, 69, 57)
(48, 68, 101, 49, 48, 80, 69, 57)
(44, 65, 155, 52, 54, 82, 67, 60)
(44, 65, 155, 52, 54, 82, 67, 60)
(44, 66, 162, 54, 51, 76, 64, 54)
(44, 66, 162, 54, 51, 76, 64, 54)
(41, 66, 169, 54, 53, 72, 60, 58)
(41, 66, 169, 54, 53, 72, 60, 58)
(40, 64, 169, 50, 57, 84, 60, 62)
(40, 64, 169, 50, 57, 84, 60, 62)
(40, 64, 173, 51, 56, 80, 66, 58)
(40, 64, 173, 51, 56, 80, 66, 58)
(41, 67, 122, 54, 51, 84, 74, 56)
(41, 67, 122, 54, 51, 84, 74, 56)
(40, 65, 117, 53, 52, 86, 73, 58)
(40, 65, 117, 53, 52, 86, 73, 58)
(37, 66, 111, 50, 53, 96, 76, 53)
(37, 66, 111, 50, 53, 96, 76, 53)
(38, 62, 104, 51, 47, 96, 71, 50)
(38, 62, 104, 51, 47, 96, 71, 50)
(40, 59, 89, 47, 51, 112, 70, 51)
(40, 59, 89, 47, 51, 112, 70, 51)
(40, 65, 101, 45, 55, 114, 64, 50)
(40, 65, 101, 45, 55, 114, 64, 50)
(44, 65, 111, 44, 72, 199, 120, 81)
(44, 65, 111, 44, 72, 199, 120, 81)
(52, 79, 118, 50, 75, 209, 146, 97)
(52, 79, 118, 50, 75, 209, 146, 97)
(55, 91, 119, 53, 75, 218, 161, 104)
(55, 91, 119, 53, 75, 218, 161, 104)
(62, 95, 123, 59, 74, 213, 162, 110)
(62, 95, 123, 59, 74, 213, 162, 110)
(68, 104, 141, 74, 89, 243, 180, 117)
(68, 104, 141, 74, 89, 243, 180, 117)
(77, 120, 154, 84, 92, 231, 190, 121)
(77, 120, 154, 84, 92, 231, 190, 121)
(77, 118, 155, 81, 87, 219, 170, 112)
(77, 118, 155, 81, 87, 219, 170, 112)
(80, 115, 164, 84, 92, 235, 183, 127)
(80, 115, 164, 84, 92, 235, 183, 127)
(80, 118, 169, 90, 102, 245, 190, 132)
(80, 118, 169, 90, 102, 245, 190, 132)
(78, 108, 149, 81, 96, 221, 185, 134)
(78, 108, 149, 81, 96, 221, 185, 134)
(69, 95, 138, 72, 82, 181, 153, 119)
(69, 95, 138, 72, 82, 181, 153, 119)
(65, 92, 127, 74, 89, 194, 168, 122)
(65, 92, 127, 74, 89, 194, 168, 122)
(59, 88, 117, 69, 89, 177, 152, 104)
(59, 88, 117, 69, 89, 177, 152, 104)
(59, 88, 117, 69, 89, 177, 152, 104)
(50, 78, 108, 58, 79, 165, 146, 93)
(50, 78, 108, 58, 79, 165, 146, 93)
(47, 76, 107, 50, 68, 156, 142, 78)
(47, 76, 107, 50, 68, 156, 142, 78)
(44, 68, 85, 47, 65, 139, 131, 70)
(44, 68, 85, 47, 65, 139, 131, 70)
(44, 68, 85, 47, 65, 139, 131, 70)
(44, 65, 84, 46, 54, 122, 119, 62)
(44, 65, 84, 46, 54, 122, 119, 62)
(45, 72, 92, 52, 44, 92, 107, 55)
(45, 72, 92, 52, 44, 92, 107, 55)
(44, 68, 90, 49, 39, 81, 100, 53)
(44, 68, 90, 49, 39, 81, 100, 53)
(45, 69, 87, 53, 40, 75, 97, 54)
(44, 72, 94, 51, 40, 78, 114, 54)
(50, 119, 138, 57, 37, 63, 109, 57)
(50, 119, 138, 57, 37, 63, 109, 57)
(48, 173, 149, 50, 35, 56, 126, 53)
(48, 173, 149, 50, 35, 56, 126, 53)
(50, 206, 163, 54, 34, 58, 128, 54)
(50, 206, 163, 54, 34, 58, 128, 54)
(63, 253, 201, 55, 31, 58, 126, 56)
(63, 253, 201, 55, 31, 58, 126, 56)
(72, 397, 300, 68, 29, 51, 140, 53)
(72, 397, 300, 68, 29, 51, 140, 53)
(73, 423, 304, 67, 34, 53, 140, 50)
(73, 423, 304, 67, 34, 53, 140, 50)
(77, 414, 298, 72, 37, 62, 124, 55)
(77, 414, 298, 72, 37, 62, 124, 55)
(80, 413, 314, 72, 37, 57, 125, 56)
(80, 413, 314, 72, 37, 57, 125, 56)
(81, 392, 305, 74, 36, 55, 121, 53)
(81, 392, 305, 74, 36, 55, 121, 53)
(82, 258, 218, 75, 36, 56, 88, 59)
(82, 258, 218, 75, 36, 56, 88, 59)
(78, 219, 201, 72, 35, 56, 92, 57)
(78, 219, 201, 72, 35, 56, 92, 57)
(77, 223, 222, 69, 33, 46, 107, 53)
(77, 223, 222, 69, 33, 46, 107, 53)
(75, 213, 199, 68, 36, 48, 108, 49)
(75, 213, 199, 68, 36, 48, 108, 49)
(64, 248, 202, 62, 40, 48, 105, 50)
(64, 248, 202, 62, 40, 48, 105, 50)
(58, 315, 216, 51, 41, 49, 102, 49)
(58, 315, 216, 51, 41, 49, 102, 49)
(79, 384, 346, 76, 40, 45, 102, 51)
(79, 384, 346, 76, 40, 45, 102, 51)
(86, 384, 364, 82, 40, 45, 78, 52)
(86, 384, 364, 82, 40, 45, 78, 52)
(86, 396, 369, 85, 39, 47, 70, 57)
(86, 396, 369, 85, 39, 47, 70, 57)
(96, 384, 379, 93, 41, 48, 73, 57)
(96, 384, 379, 93, 41, 48, 73, 57)
(95, 327, 384, 95, 48, 49, 68, 55)
(95, 327, 384, 95, 48, 49, 68, 55)
(76, 224, 275, 83, 50, 58, 81, 53)
(76, 224, 275, 83, 50, 58, 81, 53)
(66, 218, 245, 75, 55, 62, 80, 54)
(66, 218, 245, 75, 55, 62, 80, 54)
(66, 186, 247, 70, 62, 63, 84, 52)
(66, 186, 247, 70, 62, 63, 84, 52)
(57, 177, 234, 63, 62, 62, 80, 51)
(57, 177, 234, 63, 62, 62, 80, 51)
(57, 176, 204, 57, 56, 59, 82, 48)
(57, 176, 204, 57, 56, 59, 82, 48)
(55, 171, 209, 45, 53, 50, 55, 46)
(55, 171, 209, 45, 53, 50, 55, 46)
(53, 151, 197, 47, 47, 43, 54, 40)
(53, 151, 197, 47, 47, 43, 54, 40)
(57, 146, 180, 46, 34, 38, 47, 37)
(57, 146, 180, 46, 34, 38, 47, 37)
(54, 144, 158, 43, 31, 38, 51, 33)
(54, 144, 158, 43, 31, 38, 51, 33)
(49, 134, 170, 45, 30, 38, 59, 33)
(49, 134, 170, 45, 30, 38, 59, 33)
(54, 184, 169, 55, 30, 37, 58, 32)
(54, 184, 169, 55, 30, 37, 58, 32)
(57, 191, 170, 56, 29, 38, 56, 35)
(57, 191, 170, 56, 29, 38, 56, 35)
(50, 192, 166, 56, 32, 122, 55, 33)
(50, 192, 166, 56, 32, 122, 55, 33)
(48, 175, 173, 61, 37, 146, 51, 36)
(48, 175, 173, 61, 37, 146, 51, 36)
(47, 176, 156, 63, 41, 160, 40, 37)
(47, 176, 156, 63, 41, 160, 40, 37)
(45, 126, 139, 59, 48, 166, 70, 44)
(45, 126, 139, 59, 48, 166, 70, 44)
(42, 113, 129, 56, 61, 192, 77, 46)
(42, 113, 129, 56, 61, 192, 77, 46)
(46, 99, 133, 60, 73, 162, 81, 46)
(46, 99, 133, 60, 73, 162, 81, 46)
(45, 98, 117, 58, 166, 272, 89, 45)
(45, 98, 117, 58, 166, 272, 89, 45)
(47, 96, 121, 52, 178, 286, 90, 46)
(47, 96, 121, 52, 178, 286, 90, 46)
(43, 93, 111, 48, 180, 297, 81, 42)
(43, 93, 111, 48, 180, 297, 81, 42)
(43, 103, 121, 54, 200, 321, 77, 42)
(43, 103, 121, 54, 200, 321, 77, 42)
(39, 111, 117, 55, 223, 354, 92, 42)
(39, 111, 117, 55, 223, 354, 92, 42)
(43, 109, 124, 63, 265, 411, 103, 49)
(43, 109, 124, 63, 265, 411, 103, 49)
(50, 116, 140, 74, 327, 508, 110, 52)
(50, 116, 140, 74, 327, 508, 110, 52)
(58, 113, 167, 90, 372, 575, 116, 56)
(58, 113, 167, 90, 372, 575, 116, 56)
(61, 103, 172, 95, 414, 660, 124, 60)
(61, 103, 172, 95, 414, 660, 124, 60)
(64, 117, 182, 99, 428, 697, 122, 63)
(64, 117, 182, 99, 428, 697, 122, 63)
(69, 134, 205, 103, 410, 694, 125, 67)
(69, 134, 205, 103, 410, 694, 125, 67)
(66, 137, 196, 102, 379, 647, 120, 65)
(66, 137, 196, 102, 379, 647, 120, 65)
(62, 138, 175, 90, 347, 598, 116, 64)
(62, 138, 175, 90, 347, 598, 116, 64)
(62, 141, 171, 88, 329, 545, 118, 62)
(62, 141, 171, 88, 329, 545, 118, 62)
(59, 143, 160, 86, 301, 492, 116, 60)
(59, 143, 160, 86, 301, 492, 116, 60)
(51, 128, 120, 73, 258, 402, 114, 47)
(51, 128, 120, 73, 258, 402, 114, 47)
(49, 116, 133, 66, 298, 465, 121, 50)
(49, 116, 133, 66, 298, 465, 121, 50)
(53, 119, 146, 73, 316, 488, 128, 59)
(53, 119, 146, 73, 316, 488, 128, 59)
(50, 123, 143, 69, 305, 472, 124, 57)
(50, 123, 143, 69, 305, 472, 124, 57)
(47, 101, 140, 64, 298, 456, 122, 58)
(47, 101, 140, 64, 298, 456, 122, 58)
(48, 111, 157, 65, 306, 452, 112, 63)
(48, 111, 157, 65, 306, 452, 112, 63)
(48, 117, 158, 67, 340, 467, 114, 66)
(48, 117, 158, 67, 340, 467, 114, 66)
(51, 112, 158, 60, 357, 478, 100, 57)
(51, 112, 158, 60, 357, 478, 100, 57)
(53, 102, 158, 61, 357, 454, 94, 55)
(53, 102, 158, 61, 357, 454, 94, 55)
(53, 104, 157, 58, 362, 454, 88, 53)
(53, 104, 157, 58, 362, 454, 88, 53)
(50, 92, 145, 58, 354, 452, 82, 47)
(50, 92, 145, 58, 354, 452, 82, 47)
(51, 81, 131, 53, 259, 321, 61, 37)
(51, 81, 131, 53, 259, 321, 61, 37)
(42, 70, 107, 49, 188, 233, 62, 33)
(42, 70, 107, 49, 188, 233, 62, 33)
(43, 84, 103, 45, 114, 157, 67, 31)
(43, 84, 103, 45, 114, 157, 67, 31)
(44, 152, 115, 51, 92, 144, 68, 32)
(44, 152, 115, 51, 92, 144, 68, 32)
(48, 182, 119, 49, 72, 118, 69, 32)
(48, 182, 119, 49, 72, 118, 69, 32)
(45, 195, 128, 52, 52, 87, 81, 30)
(45, 195, 128, 52, 52, 87, 81, 30)
(49, 211, 147, 59, 47, 67, 76, 29)
(49, 211, 147, 59, 47, 67, 76, 29)
(96, 455, 202, 91, 54, 59, 79, 57)
(96, 455, 202, 91, 54, 59, 79, 57)
(102, 471, 203, 92, 56, 54, 99, 62)
(102, 471, 203, 92, 56, 54, 99, 62)
(117, 548, 302, 101, 57, 54, 109, 72)
(117, 548, 302, 101, 57, 54, 109, 72)
(135, 588, 335, 113, 64, 90, 110, 84)
(135, 588, 335, 113, 64, 90, 110, 84)
(156, 657, 371, 130, 70, 117, 129, 100)
(156, 657, 371, 130, 70, 117, 129, 100)
(146, 577, 415, 123, 70, 120, 127, 93)
(146, 577, 415, 123, 70, 120, 127, 93)
(154, 599, 448, 128, 70, 155, 113, 92)
(154, 599, 448, 128, 70, 155, 113, 92)
(147, 570, 393, 125, 73, 222, 117, 89)
(147, 570, 393, 125, 73, 222, 117, 89)
(153, 597, 436, 140, 71, 232, 114, 91)
(153, 597, 436, 140, 71, 232, 114, 91)
(139, 579, 499, 135, 66, 220, 94, 78)
(139, 579, 499, 135, 66, 220, 94, 78)
(126, 559, 478, 124, 58, 218, 91, 72)
(126, 559, 478, 124, 58, 218, 91, 72)
(113, 520, 445, 118, 54, 196, 98, 69)
(113, 520, 445, 118, 54, 196, 98, 69)
(112, 510, 454, 114, 48, 115, 89, 68)
(112, 510, 454, 114, 48, 115, 89, 68)
(86, 466, 392, 85, 41, 58, 88, 55)
(86, 466, 392, 85, 41, 58, 88, 55)
(73, 402, 270, 62, 38, 56, 85, 53)
(73, 402, 270, 62, 38, 56, 85, 53)
(71, 353, 203, 59, 37, 54, 93, 51)
(71, 353, 203, 59, 37, 54, 93, 51)
(80, 351, 227, 61, 38, 50, 86, 53)
(80, 351, 227, 61, 38, 50, 86, 53)
(72, 315, 223, 59, 36, 46, 79, 52)
(72, 315, 223, 59, 36, 46, 79, 52)
(74, 261, 208, 51, 35, 46, 80, 45)
(74, 261, 208, 51, 35, 46, 80, 45)
(72, 234, 194, 49, 36, 45, 102, 44)
(72, 234, 194, 49, 36, 45, 102, 44)
(67, 238, 196, 51, 38, 51, 99, 44)
(67, 238, 196, 51, 38, 51, 99, 44)
(58, 271, 179, 53, 36, 49, 94, 42)
(58, 271, 179, 53, 36, 49, 94, 42)
(65, 252, 154, 55, 35, 47, 94, 39)
(65, 252, 154, 55, 35, 47, 94, 39)
(55, 240, 154, 56, 36, 45, 92, 41)
(55, 240, 154, 56, 36, 45, 92, 41)
(54, 244, 146, 56, 37, 45, 69, 39)
(54, 244, 146, 56, 37, 45, 69, 39)
(56, 230, 150, 53, 34, 39, 60, 36)
(56, 230, 150, 53, 34, 39, 60, 36)
(53, 191, 143, 45, 38, 41, 61, 34)
(53, 191, 143, 45, 38, 41, 61, 34)
(56, 192, 151, 45, 39, 42, 60, 42)
(56, 192, 151, 45, 39, 42, 60, 42)
(55, 190, 142, 43, 39, 42, 59, 40)
(55, 190, 142, 43, 39, 42, 59, 40)
(55, 192, 144, 48, 43, 45, 64, 44)
(55, 192, 144, 48, 43, 45, 64, 44)
(54, 218, 144, 49, 50, 55, 63, 47)
(54, 218, 144, 49, 50, 55, 63, 47)
(57, 181, 132, 49, 52, 54, 65, 49)
(57, 181, 132, 49, 52, 54, 65, 49)
(51, 181, 172, 53, 63, 60, 63, 44)
(51, 181, 172, 53, 63, 60, 63, 44)
(53, 195, 183, 53, 62, 63, 71, 43)
(53, 195, 183, 53, 62, 63, 71, 43)
(53, 190, 183, 50, 61, 61, 64, 41)
(53, 190, 183, 50, 61, 61, 64, 41)
(62, 235, 199, 57, 63, 56, 70, 43)
(62, 235, 199, 57, 63, 56, 70, 43)
(60, 241, 194, 59, 67, 59, 69, 43)
(60, 241, 194, 59, 67, 59, 69, 43)
(56, 225, 154, 62, 63, 59, 69, 42)
(56, 225, 154, 62, 63, 59, 69, 42)
(63, 246, 172, 65, 65, 64, 59, 46)
(63, 246, 172, 65, 65, 64, 59, 46)
(74, 278, 188, 90, 68, 64, 55, 47)
(74, 278, 188, 90, 68, 64, 55, 47)
(71, 265, 168, 93, 103, 106, 57, 47)
(71, 265, 168, 93, 103, 106, 57, 47)
(88, 310, 266, 159, 171, 144, 92, 61)
(88, 310, 266, 159, 171, 144, 92, 61)
(90, 367, 302, 168, 176, 189, 95, 66)
(90, 367, 302, 168, 176, 189, 95, 66)
(110, 495, 404, 183, 179, 225, 100, 73)
(110, 495, 404, 183, 179, 225, 100, 73)
(111, 505, 438, 193, 228, 446, 121, 81)
(111, 505, 438, 193, 228, 446, 121, 81)
(115, 483, 456, 263, 270, 514, 121, 87)
(115, 483, 456, 263, 270, 514, 121, 87)
(107, 470, 442, 256, 241, 554, 101, 85)
(107, 470, 442, 256, 241, 554, 101, 85)
(115, 442, 439, 263, 268, 574, 108, 87)
(115, 442, 439, 263, 268, 574, 108, 87)
(110, 311, 386, 272, 302, 593, 109, 90)
(110, 311, 386, 272, 302, 593, 109, 90)
(110, 301, 350, 282, 284, 507, 94, 88)
(110, 301, 350, 282, 284, 507, 94, 88)
(121, 328, 370, 247, 313, 494, 116, 90)
(121, 328, 370, 247, 313, 494, 116, 90)
(128, 376, 373, 241, 322, 474, 122, 91)
(128, 376, 373, 241, 322, 474, 122, 91)
(133, 391, 397, 234, 304, 497, 120, 93)
(133, 391, 397, 234, 304, 497, 120, 93)
(124, 432, 382, 235, 307, 531, 129, 94)
(124, 432, 382, 235, 307, 531, 129, 94)
(123, 423, 408, 225, 311, 492, 126, 90)
(123, 423, 408, 225, 311, 492, 126, 90)
(123, 450, 382, 201, 237, 454, 111, 84)
(123, 450, 382, 201, 237, 454, 111, 84)
(119, 414, 367, 185, 222, 438, 100, 78)
(119, 414, 367, 185, 222, 438, 100, 78)
(106, 385, 313, 175, 211, 379, 93, 70)
(106, 385, 313, 175, 211, 379, 93, 70)
(100, 313, 271, 141, 166, 273, 74, 58)
(100, 313, 271, 141, 166, 273, 74, 58)
(100, 313, 271, 141, 166, 273, 74, 58)
(102, 329, 248, 111, 134, 247, 72, 62)
(102, 329, 248, 111, 134, 247, 72, 62)
(85, 297, 234, 94, 117, 225, 69, 58)
(85, 297, 234, 94, 117, 225, 69, 58)
(72, 269, 190, 68, 101, 183, 86, 57)
(72, 269, 190, 68, 101, 183, 86, 57)
(71, 281, 196, 61, 98, 146, 87, 57)
(90, 283, 235, 75, 73, 134, 99, 72)
(90, 283, 235, 75, 73, 134, 99, 72)
(91, 262, 214, 75, 49, 129, 117, 69)
(91, 262, 214, 75, 49, 129, 117, 69)
(98, 278, 284, 84, 44, 73, 131, 74)
(98, 278, 284, 84, 44, 73, 131, 74)
(103, 346, 303, 89, 46, 66, 125, 78)
(103, 346, 303, 89, 46, 66, 125, 78)
(108, 358, 333, 99, 50, 77, 142, 90)
(108, 358, 333, 99, 50, 77, 142, 90)
(98, 375, 319, 94, 45, 93, 152, 83)
(98, 375, 319, 94, 45, 93, 152, 83)
(112, 383, 331, 102, 45, 96, 143, 90)
(112, 383, 331, 102, 45, 96, 143, 90)
(111, 367, 272, 101, 51, 95, 152, 93)
(111, 367, 272, 101, 51, 95, 152, 93)
(113, 332, 264, 96, 51, 96, 158, 89)
(113, 332, 264, 96, 51, 96, 158, 89)
(118, 369, 237, 91, 50, 86, 147, 83)
(118, 369, 237, 91, 50, 86, 147, 83)
(121, 379, 275, 95, 54, 66, 130, 83)
(121, 379, 275, 95, 54, 66, 130, 83)
(103, 365, 266, 79, 52, 63, 124, 74)
(103, 365, 266, 79, 52, 63, 124, 74)
(98, 350, 261, 72, 47, 57, 97, 66)
(98, 350, 261, 72, 47, 57, 97, 66)
(98, 350, 261, 72, 47, 57, 97, 66)
(94, 339, 257, 70, 47, 56, 88, 68)
(86, 299, 275, 72, 47, 61, 90, 64)
(86, 299, 275, 72, 47, 61, 90, 64)
(91, 309, 258, 69, 44, 63, 83, 64)
(91, 309, 258, 69, 44, 63, 83, 64)
(92, 303, 259, 68, 46, 62, 90, 65)
(92, 303, 259, 68, 46, 62, 90, 65)
(88, 296, 268, 65, 49, 61, 87, 62)
(88, 296, 268, 65, 49, 61, 87, 62)
(85, 279, 267, 62, 52, 63, 85, 60)
(85, 279, 267, 62, 52, 63, 85, 60)
(93, 299, 243, 60, 58, 64, 78, 59)
(93, 299, 243, 60, 58, 64, 78, 59)
(79, 234, 213, 48, 59, 61, 81, 56)
(79, 234, 213, 48, 59, 61, 81, 56)
(74, 222, 190, 46, 57, 60, 76, 53)
(74, 222, 190, 46, 57, 60, 76, 53)
(71, 211, 175, 46, 53, 57, 93, 56)
(71, 211, 175, 46, 53, 57, 93, 56)
(80, 214, 164, 48, 48, 88, 92, 55)
(80, 214, 164, 48, 48, 88, 92, 55)
(72, 185, 175, 39, 38, 82, 89, 50)
(72, 185, 175, 39, 38, 82, 89, 50)
(69, 177, 160, 52, 27, 86, 94, 43)
(69, 177, 160, 52, 27, 86, 94, 43)
(65, 176, 170, 56, 26, 89, 95, 41)
(65, 176, 170, 56, 26, 89, 95, 41)
(69, 178, 166, 58, 28, 89, 71, 38)
(69, 178, 166, 58, 28, 89, 71, 38)
(62, 185, 162, 57, 28, 55, 66, 37)
(62, 185, 162, 57, 28, 55, 66, 37)
(52, 136, 118, 56, 30, 54, 73, 40)
(52, 136, 118, 56, 30, 54, 73, 40)
(49, 137, 118, 44, 30, 48, 66, 41)
(49, 137, 118, 44, 30, 48, 66, 41)
(50, 133, 98, 37, 29, 44, 75, 42)
(50, 133, 98, 37, 29, 44, 75, 42)
(53, 142, 114, 36, 30, 40, 79, 45)
(53, 142, 114, 36, 30, 40, 79, 45)
(50, 140, 112, 40, 31, 37, 79, 43)
(50, 140, 112, 40, 31, 37, 79, 43)
(55, 145, 126, 42, 30, 45, 73, 44)
(55, 145, 126, 42, 30, 45, 73, 44)
(55, 155, 128, 43, 30, 84, 83, 45)
(55, 155, 128, 43, 30, 84, 83, 45)
(54, 159, 130, 43, 32, 87, 73, 43)
(54, 159, 130, 43, 32, 87, 73, 43)
(60, 154, 119, 42, 31, 92, 69, 41)
(60, 154, 119, 42, 31, 92, 69, 41)
(62, 151, 137, 44, 35, 96, 74, 41)
(62, 151, 137, 44, 35, 96, 74, 41)
(57, 141, 133, 43, 35, 95, 77, 38)
(57, 141, 133, 43, 35, 95, 77, 38)
(59, 123, 151, 42, 39, 67, 63, 36)
(59, 123, 151, 42, 39, 67, 63, 36)
(66, 116, 159, 41, 38, 63, 59, 36)
(66, 116, 159, 41, 38, 63, 59, 36)
(60, 104, 152, 42, 38, 55, 56, 34)
(60, 104, 152, 42, 38, 55, 56, 34)
(55, 72, 132, 35, 33, 77, 46, 31)
(55, 72, 132, 35, 33, 77, 46, 31)
(57, 64, 135, 35, 32, 93, 37, 32)
(57, 64, 135, 35, 32, 93, 37, 32)
(60, 69, 121, 35, 28, 93, 44, 38)
(60, 69, 121, 35, 28, 93, 44, 38)
(59, 73, 119, 40, 29, 96, 49, 40)
(59, 73, 119, 40, 29, 96, 49, 40)
(55, 75, 128, 39, 28, 98, 48, 43)
(55, 75, 128, 39, 28, 98, 48, 43)
(56, 79, 133, 39, 31, 80, 52, 45)
(56, 79, 133, 39, 31, 80, 52, 45)
(56, 68, 132, 41, 38, 65, 56, 46)
(56, 68, 132, 41, 38, 65, 56, 46)
(52, 63, 130, 41, 42, 66, 63, 44)
(52, 63, 130, 41, 42, 66, 63, 44)
(49, 59, 119, 36, 42, 61, 60, 43)
(49, 59, 119, 36, 42, 61, 60, 43)
(51, 58, 118, 35, 44, 60, 60, 39)
(51, 58, 118, 35, 44, 60, 60, 39)
(50, 53, 122, 35, 45, 59, 59, 41)
(50, 53, 122, 35, 45, 59, 59, 41)
(48, 62, 116, 33, 41, 53, 57, 37)
(48, 62, 116, 33, 41, 53, 57, 37)
(50, 63, 108, 32, 40, 53, 51, 36)
(50, 63, 108, 32, 40, 53, 51, 36)
(46, 71, 114, 36, 41, 52, 52, 35)
(46, 71, 114, 36, 41, 52, 52, 35)
(42, 73, 104, 34, 38, 51, 54, 36)
(42, 73, 104, 34, 38, 51, 54, 36)
(41, 87, 94, 35, 36, 48, 56, 32)
(41, 87, 94, 35, 36, 48, 56, 32)
(39, 90, 93, 33, 34, 45, 55, 34)
(39, 90, 93, 33, 34, 45, 55, 34)
(43, 92, 101, 36, 32, 35, 54, 33)
(43, 92, 101, 36, 32, 35, 54, 33)
(43, 84, 91, 33, 30, 40, 53, 34)
(43, 84, 91, 33, 30, 40, 53, 34)
(47, 86, 85, 35, 30, 38, 54, 35)
(47, 86, 85, 35, 30, 38, 54, 35)
(51, 74, 84, 37, 29, 42, 50, 36)
(51, 74, 84, 37, 29, 42, 50, 36)
(53, 72, 75, 38, 30, 39, 48, 35)
(53, 72, 75, 38, 30, 39, 48, 35)
(47, 70, 64, 35, 29, 40, 40, 35)
(47, 70, 64, 35, 29, 40, 40, 35)
(51, 70, 61, 33, 29, 35, 46, 38)
(51, 70, 61, 33, 29, 35, 46, 38)
(48, 66, 60, 31, 32, 42, 43, 36)
(48, 66, 60, 31, 32, 42, 43, 36)
(46, 63, 54, 26, 30, 41, 42, 38)
(46, 63, 54, 26, 30, 41, 42, 38)
(53, 64, 60, 25, 29, 41, 44, 38)
(53, 64, 60, 25, 29, 41, 44, 38)
(54, 65, 55, 26, 31, 44, 46, 37)
(54, 65, 55, 26, 31, 44, 46, 37)
(52, 66, 55, 24, 29, 42, 37, 34)
(52, 66, 55, 24, 29, 42, 37, 34)

