EMG0,EMG1,EMG2,EMG3,EMG4,EMG5,EMG6,EMG7,TIME,STATUS
181.00000,202.00000,116.00000,114.00000,95.00000,94.00000,95.00000,132.00000,1.02010,0.00000
163.00000,188.00000,108.00000,94.00000,87.00000,98.00000,94.00000,124.00000,1.03456,0.00000
147.00000,180.00000,102.00000,98.00000,87.00000,100.00000,90.00000,117.00000,1.05692,0.00000
133.00000,175.00000,110.00000,112.00000,87.00000,98.00000,91.00000,125.00000,1.08037,0.00000
135.00000,177.00000,128.00000,132.00000,94.00000,104.00000,95.00000,134.00000,1.09459,0.00000
139.00000,178.00000,152.00000,155.00000,104.00000,94.00000,93.00000,137.00000,1.11696,0.00000
154.00000,200.00000,169.00000,179.00000,114.00000,99.00000,92.00000,151.00000,1.13959,0.00000
171.00000,219.00000,191.00000,192.00000,119.00000,95.00000,90.00000,154.00000,1.16215,0.00000
190.00000,242.00000,207.00000,211.00000,134.00000,102.00000,99.00000,158.00000,1.18526,0.00000
192.00000,256.00000,217.00000,209.00000,132.00000,88.00000,95.00000,154.00000,1.19944,0.00000
202.00000,269.00000,222.00000,208.00000,138.00000,89.00000,89.00000,150.00000,1.22214,0.00000
203.00000,271.00000,221.00000,204.00000,136.00000,81.00000,89.00000,143.00000,1.24525,0.00000
201.00000,267.00000,213.00000,193.00000,133.00000,78.00000,87.00000,144.00000,1.25960,0.00000
199.00000,261.00000,202.00000,171.00000,117.00000,73.00000,74.00000,134.00000,1.28206,0.00000
196.00000,249.00000,183.00000,159.00000,113.00000,78.00000,71.00000,127.00000,1.30589,0.00000
183.00000,228.00000,163.00000,149.00000,103.00000,82.00000,77.00000,122.00000,1.31964,0.00000
170.00000,208.00000,147.00000,125.00000,95.00000,78.00000,72.00000,113.00000,1.34197,0.00000
158.00000,185.00000,134.00000,119.00000,92.00000,80.00000,67.00000,105.00000,1.36511,0.00000
139.00000,156.00000,120.00000,117.00000,94.00000,72.00000,65.00000,104.00000,1.37946,0.00000
129.00000,138.00000,123.00000,132.00000,106.00000,68.00000,58.00000,105.00000,1.40217,0.00000
130.00000,136.00000,136.00000,140.00000,103.00000,64.00000,50.00000,110.00000,1.42661,0.00000
137.00000,154.00000,147.00000,161.00000,109.00000,68.00000,52.00000,112.00000,1.44831,0.00000
144.00000,185.00000,163.00000,173.00000,108.00000,60.00000,58.00000,113.00000,1.46172,0.00000
150.00000,211.00000,174.00000,179.00000,105.00000,72.00000,63.00000,119.00000,1.48495,0.00000
163.00000,225.00000,189.00000,180.00000,98.00000,70.00000,65.00000,116.00000,1.49923,0.00000
175.00000,245.00000,195.00000,186.00000,99.00000,69.00000,62.00000,123.00000,1.52189,0.00000
186.00000,256.00000,208.00000,185.00000,102.00000,71.00000,62.00000,121.00000,1.54483,0.00000
194.00000,258.00000,212.00000,186.00000,108.00000,72.00000,58.00000,121.00000,1.55957,0.00000
203.00000,256.00000,212.00000,184.00000,113.00000,61.00000,55.00000,111.00000,1.58200,0.00000
198.00000,257.00000,200.00000,172.00000,109.00000,57.00000,55.00000,113.00000,1.60455,0.00000
189.00000,246.00000,190.00000,149.00000,106.00000,62.00000,59.00000,102.00000,1.62842,0.00000
175.00000,227.00000,169.00000,130.00000,95.00000,56.00000,61.00000,103.00000,1.64216,0.00000
163.00000,209.00000,153.00000,110.00000,92.00000,66.00000,63.00000,100.00000,1.66499,0.00000
143.00000,186.00000,138.00000,99.00000,86.00000,69.00000,66.00000,99.00000,1.68840,0.00000
134.00000,168.00000,128.00000,114.00000,98.00000,75.00000,62.00000,95.00000,1.70202,0.00000
122.00000,147.00000,124.00000,122.00000,96.00000,75.00000,61.00000,96.00000,1.72470,0.00000
121.00000,144.00000,130.00000,139.00000,100.00000,75.00000,60.00000,100.00000,1.74841,0.00000
124.00000,151.00000,154.00000,159.00000,103.00000,69.00000,59.00000,105.00000,1.76206,0.00000
144.00000,181.00000,173.00000,178.00000,111.00000,64.00000,56.00000,111.00000,1.78447,0.00000
160.00000,211.00000,195.00000,189.00000,113.00000,65.00000,59.00000,115.00000,1.80847,0.00000
171.00000,229.00000,210.00000,199.00000,116.00000,62.00000,58.00000,113.00000,1.82215,0.00000
180.00000,241.00000,216.00000,198.00000,120.00000,63.00000,59.00000,112.00000,1.86109,0.00000
193.00000,259.00000,213.00000,189.00000,115.00000,68.00000,62.00000,115.00000,1.87529,0.00000
193.00000,259.00000,213.00000,189.00000,115.00000,68.00000,62.00000,115.00000,1.89099,0.00000
196.00000,253.00000,205.00000,173.00000,103.00000,64.00000,60.00000,116.00000,1.90452,0.00000
196.00000,253.00000,194.00000,158.00000,103.00000,67.00000,63.00000,116.00000,1.92828,0.00000
191.00000,246.00000,184.00000,145.00000,97.00000,68.00000,65.00000,109.00000,1.94265,0.00000
181.00000,232.00000,165.00000,129.00000,90.00000,71.00000,64.00000,103.00000,1.95709,0.00000
161.00000,212.00000,147.00000,115.00000,89.00000,68.00000,71.00000,95.00000,1.97957,0.00000
146.00000,192.00000,132.00000,107.00000,88.00000,67.00000,69.00000,84.00000,2.00264,0.00000
131.00000,174.00000,117.00000,105.00000,89.00000,65.00000,72.00000,84.00000,2.01714,0.00000
128.00000,155.00000,120.00000,108.00000,88.00000,62.00000,70.00000,86.00000,2.03953,0.00000
131.00000,155.00000,141.00000,130.00000,101.00000,65.00000,69.00000,95.00000,2.06335,0.00000
143.00000,163.00000,156.00000,154.00000,96.00000,69.00000,61.00000,100.00000,2.07689,0.00000
146.00000,176.00000,173.00000,171.00000,102.00000,69.00000,65.00000,106.00000,2.09945,0.00000
156.00000,196.00000,191.00000,182.00000,100.00000,64.00000,58.00000,104.00000,2.13767,0.00000
165.00000,224.00000,204.00000,188.00000,103.00000,65.00000,55.00000,110.00000,2.15279,0.00000
175.00000,236.00000,208.00000,186.00000,99.00000,56.00000,54.00000,103.00000,2.16775,0.00000
186.00000,245.00000,216.00000,182.00000,107.00000,52.00000,53.00000,101.00000,2.18287,0.00000
194.00000,249.00000,213.00000,176.00000,109.00000,51.00000,50.00000,102.00000,2.20520,0.00000
198.00000,248.00000,206.00000,174.00000,109.00000,53.00000,49.00000,100.00000,2.21958,0.00000
193.00000,239.00000,192.00000,169.00000,113.00000,59.00000,49.00000,95.00000,2.24276,0.00000
181.00000,227.00000,176.00000,155.00000,108.00000,65.00000,57.00000,95.00000,2.25708,0.00000
162.00000,217.00000,156.00000,134.00000,95.00000,63.00000,55.00000,90.00000,2.27956,0.00000
148.00000,209.00000,147.00000,120.00000,85.00000,64.00000,55.00000,85.00000,2.30262,0.00000
133.00000,196.00000,135.00000,102.00000,80.00000,73.00000,64.00000,87.00000,2.31710,0.00000
119.00000,177.00000,123.00000,107.00000,73.00000,73.00000,66.00000,85.00000,2.33946,0.00000
116.00000,159.00000,121.00000,114.00000,74.00000,65.00000,61.00000,79.00000,2.36269,0.00000
123.00000,150.00000,125.00000,133.00000,95.00000,70.00000,65.00000,89.00000,2.37711,0.00000
131.00000,157.00000,139.00000,152.00000,97.00000,69.00000,67.00000,94.00000,2.40747,0.00000
146.00000,179.00000,169.00000,170.00000,109.00000,59.00000,67.00000,101.00000,2.43017,0.00000
162.00000,205.00000,196.00000,183.00000,113.00000,56.00000,66.00000,110.00000,2.44515,0.00000
181.00000,223.00000,206.00000,192.00000,116.00000,59.00000,69.00000,117.00000,2.45952,0.00000
190.00000,235.00000,212.00000,193.00000,113.00000,58.00000,67.00000,117.00000,2.48284,0.00000
196.00000,236.00000,215.00000,187.00000,113.00000,58.00000,65.00000,115.00000,2.50520,0.00000
197.00000,237.00000,206.00000,179.00000,101.00000,56.00000,56.00000,110.00000,2.51947,0.00000
200.00000,237.00000,197.00000,165.00000,93.00000,55.00000,56.00000,106.00000,2.54243,0.00000
190.00000,239.00000,191.00000,154.00000,89.00000,53.00000,56.00000,101.00000,2.56505,0.00000
182.00000,233.00000,182.00000,137.00000,71.00000,54.00000,56.00000,94.00000,2.57962,0.00000
172.00000,225.00000,164.00000,126.00000,73.00000,65.00000,57.00000,89.00000,2.60284,0.00000
162.00000,210.00000,149.00000,115.00000,77.00000,66.00000,60.00000,82.00000,2.61933,0.00000
144.00000,187.00000,130.00000,102.00000,84.00000,67.00000,59.00000,72.00000,2.63953,0.00000
134.00000,167.00000,116.00000,93.00000,82.00000,67.00000,53.00000,68.00000,2.67092,0.00000
126.00000,153.00000,117.00000,98.00000,86.00000,64.00000,52.00000,72.00000,2.68494,0.00000
128.00000,149.00000,129.00000,118.00000,91.00000,54.00000,52.00000,80.00000,2.70777,0.00000
138.00000,154.00000,157.00000,145.00000,91.00000,56.00000,56.00000,89.00000,2.72277,0.00000
148.00000,181.00000,174.00000,169.00000,90.00000,56.00000,56.00000,98.00000,2.73695,0.00000
159.00000,200.00000,193.00000,182.00000,93.00000,62.00000,61.00000,108.00000,2.75960,0.00000
168.00000,219.00000,206.00000,191.00000,96.00000,60.00000,63.00000,113.00000,2.78317,0.00000
180.00000,236.00000,215.00000,196.00000,104.00000,64.00000,63.00000,114.00000,2.80533,0.00000
187.00000,242.00000,211.00000,188.00000,105.00000,62.00000,56.00000,114.00000,2.81943,0.00000
193.00000,239.00000,207.00000,179.00000,106.00000,60.00000,56.00000,112.00000,2.84275,0.00000
188.00000,245.00000,198.00000,173.00000,110.00000,57.00000,53.00000,106.00000,2.85708,0.00000
186.00000,239.00000,187.00000,164.00000,112.00000,61.00000,51.00000,101.00000,2.87953,0.00000
175.00000,228.00000,165.00000,141.00000,97.00000,62.00000,50.00000,96.00000,2.91019,0.00000
154.00000,223.00000,148.00000,127.00000,99.00000,67.00000,57.00000,96.00000,2.92528,0.00000
140.00000,212.00000,136.00000,114.00000,97.00000,70.00000,58.00000,95.00000,2.95594,0.00000
133.00000,189.00000,127.00000,99.00000,88.00000,72.00000,57.00000,88.00000,2.97012,0.00000
117.00000,176.00000,118.00000,98.00000,82.00000,69.00000,58.00000,82.00000,2.98532,0.00000
108.00000,161.00000,117.00000,111.00000,91.00000,67.00000,60.00000,80.00000,2.99969,0.00000
114.00000,145.00000,126.00000,124.00000,90.00000,62.00000,55.00000,81.00000,3.02267,0.00000
128.00000,147.00000,142.00000,142.00000,93.00000,67.00000,54.00000,90.00000,3.03707,0.00000
145.00000,174.00000,164.00000,158.00000,104.00000,67.00000,60.00000,100.00000,3.05936,0.00000
165.00000,195.00000,184.00000,171.00000,109.00000,69.00000,63.00000,106.00000,3.08295,0.00000
180.00000,214.00000,200.00000,177.00000,105.00000,64.00000,63.00000,109.00000,3.09705,0.00000
193.00000,236.00000,209.00000,189.00000,113.00000,71.00000,66.00000,112.00000,3.11948,0.00000
195.00000,245.00000,207.00000,190.00000,117.00000,66.00000,69.00000,108.00000,3.14275,0.00000
196.00000,244.00000,205.00000,194.00000,124.00000,64.00000,62.00000,110.00000,3.15714,0.00000
194.00000,247.00000,199.00000,185.00000,121.00000,67.00000,60.00000,105.00000,3.17960,0.00000
188.00000,245.00000,197.00000,176.00000,121.00000,69.00000,61.00000,104.00000,3.20262,0.00000
179.00000,235.00000,189.00000,154.00000,109.00000,68.00000,62.00000,96.00000,3.21708,0.00000
166.00000,228.00000,182.00000,148.00000,109.00000,70.00000,55.00000,91.00000,3.23939,0.00000
151.00000,215.00000,164.00000,131.00000,101.00000,71.00000,59.00000,81.00000,3.26276,0.00000
134.00000,191.00000,147.00000,130.00000,101.00000,65.00000,61.00000,80.00000,3.27709,0.00000
121.00000,168.00000,125.00000,126.00000,97.00000,68.00000,58.00000,78.00000,3.29938,0.00000
116.00000,153.00000,117.00000,132.00000,102.00000,66.00000,61.00000,83.00000,3.32253,0.00000
124.00000,154.00000,133.00000,141.00000,101.00000,62.00000,64.00000,89.00000,3.33685,0.00000
137.00000,157.00000,157.00000,159.00000,97.00000,55.00000,71.00000,103.00000,3.35933,0.00000
148.00000,171.00000,177.00000,169.00000,98.00000,57.00000,68.00000,104.00000,3.38256,0.00000
157.00000,195.00000,192.00000,178.00000,102.00000,53.00000,67.00000,105.00000,3.39845,0.00000
165.00000,218.00000,207.00000,182.00000,103.00000,53.00000,62.00000,105.00000,3.41942,0.00000
171.00000,224.00000,212.00000,179.00000,101.00000,60.00000,63.00000,104.00000,3.44282,0.00000
175.00000,239.00000,209.00000,177.00000,104.00000,62.00000,53.00000,102.00000,3.45699,0.00000
178.00000,245.00000,209.00000,175.00000,116.00000,71.00000,65.00000,104.00000,3.47930,0.00000
180.00000,245.00000,207.00000,169.00000,112.00000,70.00000,63.00000,103.00000,3.50469,0.00000
173.00000,237.00000,192.00000,161.00000,105.00000,69.00000,67.00000,98.00000,3.52664,0.00000
162.00000,232.00000,177.00000,148.00000,102.00000,67.00000,70.00000,93.00000,3.54674,0.00000
149.00000,214.00000,161.00000,124.00000,89.00000,68.00000,70.00000,80.00000,3.56960,0.00000
134.00000,199.00000,139.00000,106.00000,67.00000,61.00000,60.00000,73.00000,3.59275,0.00000
127.00000,179.00000,125.00000,99.00000,71.00000,63.00000,60.00000,74.00000,3.61524,0.00000
123.00000,166.00000,121.00000,102.00000,82.00000,70.00000,60.00000,80.00000,3.62947,0.00000
123.00000,152.00000,121.00000,113.00000,78.00000,66.00000,53.00000,78.00000,3.65270,0.00000
122.00000,153.00000,134.00000,130.00000,82.00000,68.00000,57.00000,79.00000,3.66727,0.00000
124.00000,164.00000,152.00000,150.00000,91.00000,65.00000,58.00000,90.00000,3.68967,0.00000
137.00000,188.00000,168.00000,163.00000,89.00000,69.00000,61.00000,97.00000,3.71287,0.00000
150.00000,201.00000,182.00000,172.00000,89.00000,63.00000,60.00000,103.00000,3.72706,0.00000
160.00000,221.00000,198.00000,186.00000,108.00000,68.00000,63.00000,107.00000,3.74960,0.00000
169.00000,228.00000,201.00000,186.00000,112.00000,67.00000,61.00000,108.00000,3.78100,0.00000
178.00000,235.00000,204.00000,178.00000,115.00000,75.00000,61.00000,113.00000,3.79525,0.00000
176.00000,232.00000,203.00000,174.00000,122.00000,72.00000,61.00000,109.00000,3.80960,0.00000
171.00000,234.00000,200.00000,164.00000,121.00000,73.00000,62.00000,104.00000,3.83287,0.00000
168.00000,228.00000,187.00000,139.00000,103.00000,69.00000,57.00000,99.00000,3.85509,0.00000
160.00000,226.00000,177.00000,124.00000,95.00000,69.00000,59.00000,100.00000,3.86966,0.00000
153.00000,214.00000,163.00000,117.00000,88.00000,61.00000,60.00000,86.00000,3.89444,0.00000
146.00000,199.00000,147.00000,110.00000,79.00000,63.00000,60.00000,83.00000,3.90706,0.00000
140.00000,179.00000,130.00000,112.00000,83.00000,60.00000,60.00000,77.00000,3.92960,0.00000
125.00000,157.00000,116.00000,115.00000,87.00000,65.00000,66.00000,78.00000,3.95485,0.00000
123.00000,141.00000,118.00000,128.00000,95.00000,69.00000,63.00000,81.00000,3.97525,0.00000
125.00000,145.00000,136.00000,143.00000,102.00000,73.00000,66.00000,89.00000,3.98962,0.00000
145.00000,182.00000,185.00000,170.00000,104.00000,71.00000,64.00000,103.00000,4.02015,0.00000
145.00000,182.00000,185.00000,170.00000,104.00000,71.00000,64.00000,103.00000,4.03513,0.00000
153.00000,203.00000,198.00000,180.00000,108.00000,72.00000,65.00000,107.00000,4.05759,0.00000
162.00000,224.00000,209.00000,189.00000,114.00000,66.00000,61.00000,110.00000,4.07245,0.00000
172.00000,231.00000,211.00000,186.00000,113.00000,63.00000,59.00000,105.00000,4.09521,0.00000
179.00000,238.00000,206.00000,188.00000,116.00000,65.00000,61.00000,103.00000,4.10964,0.00000
176.00000,238.00000,200.00000,191.00000,117.00000,63.00000,58.00000,101.00000,4.13283,0.00000
179.00000,243.00000,198.00000,188.00000,116.00000,59.00000,57.00000,100.00000,4.14687,0.00000
175.00000,238.00000,189.00000,175.00000,109.00000,62.00000,62.00000,97.00000,4.16941,0.00000
161.00000,225.00000,175.00000,165.00000,103.00000,65.00000,64.00000,94.00000,4.19275,0.00000
143.00000,205.00000,153.00000,142.00000,97.00000,68.00000,61.00000,89.00000,4.20715,0.00000
134.00000,187.00000,142.00000,124.00000,93.00000,67.00000,64.00000,82.00000,4.22971,0.00000
122.00000,161.00000,124.00000,113.00000,86.00000,65.00000,60.00000,77.00000,4.25287,0.00000
117.00000,140.00000,118.00000,115.00000,83.00000,64.00000,63.00000,76.00000,4.26722,0.00000
114.00000,142.00000,129.00000,134.00000,92.00000,69.00000,68.00000,82.00000,4.28946,0.00000
128.00000,153.00000,147.00000,158.00000,101.00000,65.00000,70.00000,82.00000,4.31283,0.00000
136.00000,170.00000,154.00000,173.00000,100.00000,70.00000,69.00000,89.00000,4.32715,0.00000
142.00000,188.00000,173.00000,181.00000,99.00000,70.00000,72.00000,97.00000,4.35768,0.00000
149.00000,205.00000,191.00000,187.00000,106.00000,68.00000,66.00000,100.00000,4.37209,0.00000
167.00000,218.00000,199.00000,186.00000,103.00000,70.00000,61.00000,97.00000,4.39520,0.00000
165.00000,231.00000,204.00000,182.00000,97.00000,69.00000,64.00000,101.00000,4.40953,0.00000
168.00000,241.00000,207.00000,178.00000,100.00000,66.00000,64.00000,100.00000,4.43212,0.00000
170.00000,239.00000,202.00000,175.00000,103.00000,64.00000,64.00000,99.00000,4.45527,0.00000
169.00000,242.00000,192.00000,167.00000,99.00000,68.00000,65.00000,96.00000,4.46953,0.00000
160.00000,236.00000,184.00000,155.00000,96.00000,59.00000,63.00000,96.00000,4.49213,0.00000
155.00000,225.00000,171.00000,136.00000,94.00000,67.00000,59.00000,95.00000,4.51528,0.00000
149.00000,211.00000,159.00000,117.00000,91.00000,70.00000,60.00000,92.00000,4.52957,0.00000
140.00000,204.00000,150.00000,110.00000,85.00000,72.00000,59.00000,83.00000,4.55178,0.00000
133.00000,184.00000,133.00000,106.00000,77.00000,70.00000,65.00000,79.00000,4.57519,0.00000
124.00000,167.00000,124.00000,119.00000,77.00000,67.00000,62.00000,78.00000,4.58953,0.00000
122.00000,156.00000,127.00000,124.00000,76.00000,64.00000,61.00000,73.00000,4.61367,0.00000
138.00000,169.00000,151.00000,149.00000,85.00000,58.00000,64.00000,73.00000,4.63524,0.00000
145.00000,183.00000,172.00000,166.00000,99.00000,63.00000,70.00000,90.00000,4.64952,0.00000
151.00000,196.00000,196.00000,185.00000,108.00000,68.00000,66.00000,99.00000,4.67200,0.00000
160.00000,214.00000,215.00000,190.00000,109.00000,77.00000,67.00000,99.00000,4.69524,0.00000
164.00000,227.00000,222.00000,194.00000,113.00000,76.00000,68.00000,104.00000,4.70954,0.00000
161.00000,227.00000,214.00000,190.00000,101.00000,77.00000,67.00000,112.00000,4.73211,0.00000
169.00000,229.00000,206.00000,180.00000,100.00000,74.00000,60.00000,109.00000,4.75512,0.00000
174.00000,238.00000,200.00000,165.00000,88.00000,70.00000,60.00000,106.00000,4.76949,0.00000
172.00000,241.00000,183.00000,153.00000,91.00000,66.00000,62.00000,104.00000,4.79211,0.00000
169.00000,233.00000,175.00000,148.00000,90.00000,66.00000,60.00000,99.00000,4.81526,0.00000
153.00000,221.00000,167.00000,135.00000,98.00000,69.00000,60.00000,91.00000,4.82957,0.00000
141.00000,201.00000,151.00000,127.00000,89.00000,68.00000,61.00000,79.00000,4.85205,0.00000
126.00000,176.00000,133.00000,118.00000,91.00000,72.00000,59.00000,75.00000,4.87526,0.00000
114.00000,153.00000,125.00000,118.00000,87.00000,73.00000,63.00000,75.00000,4.89116,0.00000
113.00000,147.00000,130.00000,126.00000,88.00000,76.00000,62.00000,78.00000,4.91380,0.00000
121.00000,153.00000,145.00000,136.00000,85.00000,75.00000,66.00000,77.00000,4.93561,0.00000
128.00000,166.00000,159.00000,155.00000,89.00000,74.00000,71.00000,83.00000,4.95775,0.00000
134.00000,180.00000,167.00000,171.00000,103.00000,70.00000,74.00000,89.00000,4.97200,0.00000
149.00000,196.00000,183.00000,175.00000,106.00000,70.00000,71.00000,94.00000,4.99501,0.00000
162.00000,208.00000,189.00000,175.00000,105.00000,67.00000,70.00000,100.00000,5.01763,0.00000
172.00000,217.00000,192.00000,175.00000,106.00000,63.00000,66.00000,105.00000,5.04085,0.00000
175.00000,227.00000,195.00000,173.00000,113.00000,65.00000,61.00000,105.00000,5.06336,0.00000
177.00000,236.00000,198.00000,160.00000,100.00000,66.00000,57.00000,100.00000,5.07755,0.00000
170.00000,235.00000,189.00000,155.00000,98.00000,62.00000,58.00000,99.00000,5.09210,0.00000
155.00000,227.00000,176.00000,141.00000,92.00000,65.00000,58.00000,94.00000,5.11525,0.00000
141.00000,216.00000,161.00000,124.00000,87.00000,65.00000,54.00000,88.00000,5.12963,0.00000
134.00000,197.00000,148.00000,102.00000,69.00000,63.00000,55.00000,82.00000,5.15189,0.00000
126.00000,157.00000,128.00000,112.00000,74.00000,70.00000,53.00000,77.00000,5.18985,0.00000
129.00000,150.00000,133.00000,127.00000,77.00000,62.00000,55.00000,77.00000,5.20417,0.00000
133.00000,149.00000,137.00000,143.00000,82.00000,62.00000,55.00000,78.00000,5.23523,0.00000
132.00000,158.00000,149.00000,155.00000,86.00000,69.00000,55.00000,83.00000,5.24955,0.00000
133.00000,182.00000,159.00000,155.00000,82.00000,62.00000,57.00000,87.00000,5.27223,0.00000
141.00000,205.00000,174.00000,166.00000,87.00000,61.00000,63.00000,89.00000,5.29518,0.00000
142.00000,220.00000,188.00000,160.00000,87.00000,67.00000,63.00000,88.00000,5.30953,0.00000
148.00000,229.00000,198.00000,164.00000,86.00000,72.00000,64.00000,97.00000,5.33207,0.00000
151.00000,238.00000,201.00000,165.00000,87.00000,70.00000,68.00000,98.00000,5.35516,0.00000
158.00000,235.00000,200.00000,166.00000,90.00000,75.00000,71.00000,98.00000,5.36948,0.00000
163.00000,226.00000,199.00000,154.00000,82.00000,72.00000,65.00000,93.00000,5.39208,0.00000
164.00000,223.00000,192.00000,151.00000,82.00000,70.00000,64.00000,92.00000,5.41442,0.00000
158.00000,217.00000,177.00000,133.00000,88.00000,64.00000,68.00000,87.00000,5.44592,0.00000
152.00000,205.00000,167.00000,121.00000,89.00000,60.00000,64.00000,85.00000,5.46835,0.00000
124.00000,172.00000,137.00000,108.00000,91.00000,66.00000,59.00000,79.00000,5.48940,0.00000
114.00000,148.00000,120.00000,107.00000,92.00000,60.00000,58.00000,77.00000,5.51210,0.00000
110.00000,133.00000,120.00000,112.00000,87.00000,64.00000,55.00000,71.00000,5.53439,0.00000
111.00000,141.00000,133.00000,119.00000,85.00000,66.00000,53.00000,78.00000,5.55881,0.00000
123.00000,159.00000,150.00000,139.00000,84.00000,64.00000,53.00000,85.00000,5.57198,0.00000
138.00000,182.00000,168.00000,158.00000,87.00000,64.00000,49.00000,92.00000,5.59458,0.00000
146.00000,202.00000,179.00000,168.00000,93.00000,71.00000,56.00000,90.00000,5.61846,0.00000
153.00000,216.00000,188.00000,170.00000,91.00000,72.00000,54.00000,91.00000,5.64089,0.00000
163.00000,221.00000,191.00000,177.00000,94.00000,71.00000,55.00000,91.00000,5.65467,0.00000
167.00000,232.00000,195.00000,171.00000,107.00000,66.00000,59.00000,89.00000,5.68450,0.00000
171.00000,230.00000,195.00000,161.00000,106.00000,73.00000,59.00000,93.00000,5.72336,0.00000
166.00000,225.00000,183.00000,156.00000,105.00000,70.00000,58.00000,92.00000,5.74583,0.00000
156.00000,215.00000,169.00000,141.00000,100.00000,77.00000,59.00000,83.00000,5.76094,0.00000
142.00000,195.00000,150.00000,121.00000,84.00000,74.00000,64.00000,80.00000,5.77455,0.00000
128.00000,168.00000,135.00000,104.00000,74.00000,76.00000,64.00000,77.00000,5.79788,0.00000
112.00000,146.00000,119.00000,100.00000,69.00000,65.00000,61.00000,76.00000,5.81215,0.00000
109.00000,133.00000,123.00000,113.00000,79.00000,64.00000,62.00000,77.00000,5.83461,0.00000
113.00000,133.00000,128.00000,129.00000,86.00000,55.00000,62.00000,77.00000,5.85773,0.00000
122.00000,147.00000,140.00000,147.00000,94.00000,60.00000,65.00000,84.00000,5.87215,0.00000
127.00000,160.00000,148.00000,158.00000,103.00000,58.00000,65.00000,86.00000,5.89458,0.00000
139.00000,183.00000,168.00000,169.00000,101.00000,60.00000,68.00000,91.00000,5.91777,0.00000
145.00000,202.00000,180.00000,169.00000,98.00000,58.00000,66.00000,92.00000,5.93210,0.00000
155.00000,215.00000,193.00000,166.00000,95.00000,58.00000,65.00000,100.00000,5.95459,0.00000
158.00000,227.00000,198.00000,168.00000,101.00000,59.00000,58.00000,96.00000,5.97775,0.00000
160.00000,235.00000,199.00000,168.00000,94.00000,59.00000,54.00000,94.00000,6.00106,0.00000
161.00000,237.00000,192.00000,170.00000,103.00000,65.00000,54.00000,90.00000,6.02331,0.00000
158.00000,235.00000,179.00000,160.00000,97.00000,67.00000,57.00000,86.00000,6.03778,0.00000
150.00000,232.00000,164.00000,148.00000,97.00000,64.00000,59.00000,85.00000,6.05170,0.00000
141.00000,217.00000,148.00000,129.00000,85.00000,64.00000,60.00000,83.00000,6.07462,0.00000
140.00000,207.00000,141.00000,114.00000,83.00000,61.00000,62.00000,79.00000,6.09774,0.00000
131.00000,188.00000,134.00000,96.00000,75.00000,54.00000,59.00000,77.00000,6.11213,0.00000
124.00000,167.00000,126.00000,90.00000,71.00000,56.00000,58.00000,77.00000,6.13455,0.00000
112.00000,145.00000,121.00000,101.00000,73.00000,54.00000,52.00000,70.00000,6.15778,0.00000
115.00000,142.00000,128.00000,119.00000,74.00000,49.00000,55.00000,69.00000,6.17201,0.00000
121.00000,160.00000,137.00000,150.00000,96.00000,51.00000,53.00000,80.00000,6.19456,0.00000
132.00000,189.00000,166.00000,171.00000,103.00000,58.00000,54.00000,82.00000,6.21775,0.00000
146.00000,224.00000,189.00000,192.00000,112.00000,64.00000,54.00000,84.00000,6.23213,0.00000
166.00000,251.00000,213.00000,208.00000,126.00000,76.00000,55.00000,90.00000,6.25443,0.00000
179.00000,265.00000,234.00000,226.00000,158.00000,90.00000,54.00000,101.00000,6.27839,0.00000
187.00000,278.00000,250.00000,232.00000,177.00000,105.00000,56.00000,105.00000,6.30097,0.00000
194.00000,288.00000,254.00000,246.00000,202.00000,116.00000,60.00000,114.00000,6.31465,0.00000
201.00000,288.00000,265.00000,251.00000,234.00000,138.00000,65.00000,126.00000,6.33722,0.00000
203.00000,291.00000,268.00000,246.00000,239.00000,145.00000,72.00000,125.00000,6.36081,0.00000
197.00000,288.00000,261.00000,230.00000,233.00000,146.00000,78.00000,119.00000,6.37459,0.00000
187.00000,270.00000,251.00000,209.00000,217.00000,146.00000,78.00000,110.00000,6.39708,0.00000
179.00000,251.00000,237.00000,176.00000,190.00000,140.00000,82.00000,103.00000,6.42114,0.00000
162.00000,226.00000,214.00000,149.00000,148.00000,116.00000,76.00000,87.00000,6.44351,0.00000
141.00000,197.00000,189.00000,137.00000,133.00000,101.00000,69.00000,86.00000,6.45704,0.00000
135.00000,181.00000,174.00000,138.00000,123.00000,90.00000,62.00000,89.00000,6.48089,0.00000
134.00000,182.00000,182.00000,164.00000,138.00000,73.00000,65.00000,92.00000,6.50345,0.00000
141.00000,192.00000,195.00000,202.00000,150.00000,71.00000,56.00000,98.00000,6.51714,0.00000
155.00000,208.00000,216.00000,229.00000,166.00000,77.00000,59.00000,110.00000,6.54093,0.00000
167.00000,229.00000,239.00000,245.00000,182.00000,86.00000,63.00000,122.00000,6.55500,0.00000
182.00000,256.00000,258.00000,256.00000,187.00000,92.00000,69.00000,126.00000,6.57767,0.00000
198.00000,268.00000,266.00000,255.00000,190.00000,99.00000,71.00000,128.00000,6.60088,0.00000
199.00000,279.00000,272.00000,242.00000,198.00000,98.00000,74.00000,126.00000,6.61457,0.00000
197.00000,286.00000,270.00000,228.00000,193.00000,98.00000,75.00000,125.00000,6.63728,0.00000
202.00000,286.00000,263.00000,216.00000,181.00000,94.00000,72.00000,118.00000,6.66023,0.00000
192.00000,277.00000,257.00000,205.00000,175.00000,91.00000,66.00000,110.00000,6.67456,0.00000
178.00000,268.00000,243.00000,186.00000,155.00000,83.00000,59.00000,110.00000,6.69714,0.00000
169.00000,244.00000,224.00000,165.00000,139.00000,84.00000,65.00000,108.00000,6.72032,0.00000
164.00000,226.00000,208.00000,153.00000,130.00000,86.00000,64.00000,100.00000,6.74346,0.00000
147.00000,204.00000,192.00000,148.00000,142.00000,87.00000,73.00000,98.00000,6.75775,0.00000
140.00000,179.00000,167.00000,137.00000,141.00000,90.00000,77.00000,98.00000,6.77222,0.00000
131.00000,156.00000,155.00000,144.00000,148.00000,95.00000,79.00000,93.00000,6.79437,0.00000
129.00000,165.00000,159.00000,172.00000,156.00000,94.00000,75.00000,101.00000,6.81775,0.00000
137.00000,182.00000,177.00000,205.00000,170.00000,91.00000,75.00000,112.00000,6.83192,0.00000
149.00000,211.00000,200.00000,226.00000,164.00000,96.00000,72.00000,116.00000,6.85465,0.00000
167.00000,237.00000,227.00000,246.00000,169.00000,95.00000,73.00000,121.00000,6.87744,0.00000
184.00000,258.00000,244.00000,254.00000,175.00000,90.00000,74.00000,125.00000,6.89189,0.00000
192.00000,264.00000,252.00000,247.00000,180.00000,91.00000,73.00000,125.00000,6.91512,0.00000
192.00000,262.00000,255.00000,235.00000,181.00000,93.00000,75.00000,126.00000,6.92957,0.00000
193.00000,261.00000,263.00000,220.00000,176.00000,88.00000,74.00000,128.00000,6.95214,0.00000
187.00000,259.00000,255.00000,207.00000,171.00000,86.00000,72.00000,126.00000,6.97520,0.00000
178.00000,255.00000,249.00000,191.00000,157.00000,84.00000,71.00000,122.00000,6.98950,0.00000
170.00000,246.00000,242.00000,183.00000,146.00000,83.00000,69.00000,116.00000,7.01204,0.00000
159.00000,236.00000,225.00000,161.00000,125.00000,85.00000,65.00000,104.00000,7.03511,0.00000
145.00000,216.00000,199.00000,150.00000,123.00000,80.00000,62.00000,90.00000,7.05761,0.00000
129.00000,193.00000,183.00000,136.00000,114.00000,73.00000,54.00000,85.00000,7.07201,0.00000
119.00000,169.00000,162.00000,137.00000,128.00000,79.00000,54.00000,89.00000,7.09530,0.00000
131.00000,164.00000,162.00000,158.00000,129.00000,80.00000,51.00000,95.00000,7.11115,0.00000
140.00000,178.00000,178.00000,192.00000,143.00000,74.00000,67.00000,105.00000,7.13367,0.00000
158.00000,201.00000,197.00000,235.00000,166.00000,88.00000,73.00000,116.00000,7.15516,0.00000
170.00000,226.00000,223.00000,254.00000,181.00000,94.00000,80.00000,123.00000,7.16965,0.00000
181.00000,252.00000,243.00000,265.00000,179.00000,98.00000,81.00000,125.00000,7.19217,0.00000
185.00000,269.00000,252.00000,263.00000,183.00000,100.00000,82.00000,126.00000,7.22334,0.00000
195.00000,278.00000,261.00000,258.00000,186.00000,104.00000,74.00000,123.00000,7.23780,0.00000
199.00000,281.00000,266.00000,230.00000,178.00000,94.00000,70.00000,119.00000,7.26031,0.00000
201.00000,279.00000,255.00000,222.00000,173.00000,92.00000,65.00000,115.00000,7.27511,0.00000
200.00000,271.00000,251.00000,212.00000,169.00000,85.00000,63.00000,113.00000,7.28946,0.00000
189.00000,262.00000,240.00000,196.00000,162.00000,75.00000,62.00000,105.00000,7.31211,0.00000
171.00000,245.00000,219.00000,171.00000,145.00000,68.00000,61.00000,98.00000,7.33679,0.00000
155.00000,225.00000,194.00000,151.00000,131.00000,71.00000,59.00000,96.00000,7.35788,0.00000
140.00000,202.00000,180.00000,128.00000,121.00000,73.00000,58.00000,95.00000,7.37194,0.00000
124.00000,182.00000,159.00000,128.00000,124.00000,78.00000,63.00000,95.00000,7.41020,0.00000
126.00000,166.00000,153.00000,140.00000,125.00000,83.00000,62.00000,99.00000,7.42510,0.00000
134.00000,166.00000,162.00000,165.00000,136.00000,88.00000,64.00000,102.00000,7.44037,0.00000
136.00000,176.00000,175.00000,190.00000,149.00000,84.00000,65.00000,104.00000,7.45530,0.00000
150.00000,200.00000,200.00000,213.00000,155.00000,87.00000,70.00000,107.00000,7.47769,0.00000
169.00000,233.00000,222.00000,227.00000,159.00000,82.00000,71.00000,111.00000,7.49203,0.00000
180.00000,254.00000,241.00000,237.00000,170.00000,86.00000,79.00000,118.00000,7.52336,0.00000
189.00000,273.00000,250.00000,235.00000,177.00000,96.00000,78.00000,124.00000,7.53801,0.00000
197.00000,284.00000,252.00000,233.00000,176.00000,97.00000,79.00000,123.00000,7.56004,0.00000
198.00000,286.00000,250.00000,229.00000,174.00000,92.00000,80.00000,121.00000,7.57524,0.00000
193.00000,273.00000,246.00000,214.00000,169.00000,94.00000,75.00000,116.00000,7.58965,0.00000
184.00000,266.00000,233.00000,194.00000,152.00000,90.00000,67.00000,110.00000,7.61202,0.00000
173.00000,246.00000,217.00000,179.00000,138.00000,81.00000,62.00000,109.00000,7.63534,0.00000
163.00000,226.00000,205.00000,160.00000,129.00000,82.00000,68.00000,107.00000,7.64955,0.00000
152.00000,205.00000,181.00000,151.00000,133.00000,89.00000,67.00000,103.00000,7.68002,0.00000
138.00000,185.00000,156.00000,160.00000,142.00000,99.00000,73.00000,107.00000,7.70285,0.00000
130.00000,158.00000,141.00000,178.00000,163.00000,106.00000,81.00000,105.00000,7.71781,0.00000
129.00000,151.00000,135.00000,204.00000,174.00000,118.00000,91.00000,108.00000,7.73216,0.00000
132.00000,165.00000,154.00000,226.00000,188.00000,131.00000,92.00000,123.00000,7.75548,0.00000
150.00000,187.00000,182.00000,254.00000,203.00000,149.00000,101.00000,136.00000,7.77777,0.00000
171.00000,222.00000,205.00000,276.00000,211.00000,158.00000,105.00000,146.00000,7.79203,0.00000
186.00000,244.00000,221.00000,283.00000,212.00000,170.00000,107.00000,150.00000,7.81526,0.00000
198.00000,253.00000,229.00000,279.00000,214.00000,171.00000,105.00000,149.00000,7.82961,0.00000
205.00000,254.00000,226.00000,270.00000,205.00000,175.00000,108.00000,149.00000,7.85215,0.00000
200.00000,247.00000,212.00000,239.00000,187.00000,168.00000,104.00000,149.00000,7.87517,0.00000
190.00000,231.00000,204.00000,208.00000,182.00000,165.00000,102.00000,140.00000,7.89106,0.00000
185.00000,218.00000,198.00000,192.00000,172.00000,156.00000,103.00000,138.00000,7.91218,0.00000
177.00000,204.00000,195.00000,185.00000,169.00000,152.00000,101.00000,131.00000,7.94349,0.00000
171.00000,187.00000,187.00000,178.00000,170.00000,148.00000,101.00000,121.00000,7.96603,0.00000
163.00000,167.00000,189.00000,194.00000,178.00000,144.00000,103.00000,111.00000,7.98021,0.00000
164.00000,148.00000,188.00000,201.00000,173.00000,139.00000,103.00000,107.00000,7.99529,0.00000
151.00000,139.00000,185.00000,192.00000,168.00000,134.00000,96.00000,102.00000,8.00944,0.00000
144.00000,140.00000,190.00000,189.00000,155.00000,126.00000,96.00000,110.00000,8.03210,0.00000
147.00000,162.00000,205.00000,190.00000,144.00000,112.00000,90.00000,112.00000,8.05654,0.00000
159.00000,182.00000,206.00000,180.00000,128.00000,102.00000,89.00000,114.00000,8.06955,0.00000
160.00000,190.00000,204.00000,166.00000,110.00000,90.00000,85.00000,112.00000,8.09203,0.00000
166.00000,200.00000,203.00000,169.00000,100.00000,90.00000,86.00000,114.00000,8.11531,0.00000
170.00000,206.00000,194.00000,159.00000,99.00000,89.00000,86.00000,107.00000,8.12958,0.00000
162.00000,200.00000,178.00000,145.00000,90.00000,96.00000,86.00000,102.00000,8.15220,0.00000
150.00000,196.00000,167.00000,131.00000,87.00000,89.00000,78.00000,94.00000,8.17515,0.00000
144.00000,196.00000,157.00000,123.00000,87.00000,88.00000,77.00000,93.00000,8.18951,0.00000
142.00000,192.00000,147.00000,114.00000,81.00000,80.00000,73.00000,83.00000,8.21218,0.00000
129.00000,182.00000,136.00000,100.00000,73.00000,82.00000,69.00000,80.00000,8.24277,0.00000
120.00000,170.00000,122.00000,97.00000,73.00000,80.00000,66.00000,74.00000,8.25786,0.00000
110.00000,149.00000,110.00000,93.00000,73.00000,82.00000,66.00000,72.00000,8.27222,0.00000
102.00000,136.00000,106.00000,102.00000,86.00000,92.00000,62.00000,68.00000,8.29535,0.00000
102.00000,136.00000,106.00000,102.00000,86.00000,92.00000,62.00000,68.00000,8.31025,0.00000
86.00000,122.00000,96.00000,94.00000,90.00000,91.00000,62.00000,68.00000,8.32570,0.00000
87.00000,123.00000,97.00000,95.00000,88.00000,88.00000,63.00000,66.00000,8.34040,0.00000
91.00000,125.00000,100.00000,97.00000,91.00000,86.00000,62.00000,66.00000,8.36212,0.00000
98.00000,137.00000,115.00000,100.00000,82.00000,88.00000,65.00000,64.00000,8.38513,0.00000
101.00000,154.00000,124.00000,105.00000,69.00000,80.00000,66.00000,75.00000,8.40029,0.00000
112.00000,172.00000,134.00000,111.00000,64.00000,76.00000,68.00000,80.00000,8.41530,0.00000
112.00000,172.00000,134.00000,111.00000,64.00000,76.00000,68.00000,80.00000,8.43028,0.00000
126.00000,181.00000,140.00000,117.00000,71.00000,79.00000,67.00000,84.00000,8.44531,0.00000
128.00000,193.00000,143.00000,120.00000,72.00000,74.00000,64.00000,85.00000,8.46121,0.00000
130.00000,198.00000,141.00000,130.00000,76.00000,73.00000,59.00000,91.00000,8.48219,0.00000
132.00000,192.00000,143.00000,128.00000,89.00000,77.00000,55.00000,80.00000,8.51218,0.00000
134.00000,187.00000,146.00000,124.00000,82.00000,73.00000,49.00000,74.00000,8.53535,0.00000
134.00000,187.00000,146.00000,124.00000,82.00000,73.00000,49.00000,74.00000,8.55027,0.00000
133.00000,182.00000,141.00000,113.00000,81.00000,76.00000,53.00000,71.00000,8.56503,0.00000
128.00000,172.00000,135.00000,94.00000,82.00000,71.00000,52.00000,61.00000,8.57956,0.00000
122.00000,160.00000,119.00000,89.00000,76.00000,71.00000,55.00000,59.00000,8.60192,0.00000
110.00000,142.00000,103.00000,75.00000,67.00000,65.00000,50.00000,57.00000,8.62528,0.00000
88.00000,130.00000,85.00000,74.00000,69.00000,64.00000,51.00000,54.00000,8.63984,0.00000
84.00000,117.00000,85.00000,80.00000,63.00000,61.00000,45.00000,56.00000,8.66219,0.00000
92.00000,128.00000,94.00000,97.00000,57.00000,62.00000,48.00000,64.00000,8.68532,0.00000
106.00000,155.00000,115.00000,115.00000,57.00000,61.00000,55.00000,72.00000,8.69962,0.00000
119.00000,178.00000,140.00000,132.00000,63.00000,62.00000,58.00000,79.00000,8.72366,0.00000
131.00000,193.00000,155.00000,137.00000,68.00000,70.00000,59.00000,92.00000,8.74536,0.00000
143.00000,210.00000,164.00000,144.00000,75.00000,70.00000,64.00000,94.00000,8.75953,0.00000
149.00000,221.00000,175.00000,146.00000,81.00000,70.00000,64.00000,97.00000,8.79854,0.00000
153.00000,222.00000,167.00000,137.00000,87.00000,74.00000,59.00000,93.00000,8.81295,0.00000
153.00000,222.00000,167.00000,137.00000,87.00000,74.00000,59.00000,93.00000,8.82788,0.00000
153.00000,222.00000,164.00000,137.00000,94.00000,67.00000,61.00000,84.00000,8.84207,0.00000
146.00000,210.00000,158.00000,127.00000,91.00000,70.00000,60.00000,84.00000,8.86529,0.00000
140.00000,192.00000,143.00000,118.00000,91.00000,83.00000,67.00000,77.00000,8.87970,0.00000
128.00000,175.00000,133.00000,109.00000,89.00000,88.00000,72.00000,78.00000,8.90223,0.00000
124.00000,144.00000,125.00000,102.00000,91.00000,89.00000,73.00000,75.00000,8.92524,0.00000
113.00000,125.00000,116.00000,108.00000,86.00000,89.00000,75.00000,80.00000,8.93989,0.00000
115.00000,124.00000,115.00000,115.00000,84.00000,91.00000,78.00000,79.00000,8.96207,0.00000
133.00000,161.00000,151.00000,132.00000,90.00000,81.00000,77.00000,86.00000,8.98491,0.00000
168.00000,197.00000,195.00000,154.00000,97.00000,80.00000,77.00000,94.00000,8.99923,0.00000
181.00000,229.00000,220.00000,165.00000,96.00000,74.00000,76.00000,94.00000,9.02194,0.00000
198.00000,256.00000,237.00000,168.00000,102.00000,79.00000,76.00000,97.00000,9.05336,0.00000
205.00000,271.00000,255.00000,174.00000,104.00000,73.00000,72.00000,100.00000,9.06744,0.00000
201.00000,271.00000,245.00000,171.00000,112.00000,78.00000,69.00000,104.00000,9.08204,0.00000
178.00000,259.00000,220.00000,152.00000,104.00000,68.00000,64.00000,98.00000,9.10530,0.00000
165.00000,245.00000,198.00000,140.00000,99.00000,72.00000,60.00000,102.00000,9.11960,0.00000
152.00000,225.00000,181.00000,131.00000,91.00000,72.00000,60.00000,95.00000,9.14205,0.00000
144.00000,205.00000,158.00000,119.00000,94.00000,76.00000,62.00000,89.00000,9.16467,0.00000
126.00000,183.00000,146.00000,101.00000,72.00000,72.00000,61.00000,81.00000,9.18762,0.00000
118.00000,171.00000,136.00000,101.00000,78.00000,78.00000,67.00000,78.00000,9.20215,0.00000
113.00000,161.00000,136.00000,107.00000,82.00000,76.00000,66.00000,72.00000,9.22452,0.00000
103.00000,153.00000,131.00000,106.00000,80.00000,80.00000,69.00000,74.00000,9.24784,0.00000
97.00000,147.00000,129.00000,104.00000,76.00000,79.00000,67.00000,73.00000,9.26227,0.00000
100.00000,137.00000,128.00000,114.00000,82.00000,84.00000,66.00000,72.00000,9.29338,0.00000
109.00000,147.00000,135.00000,119.00000,85.00000,85.00000,63.00000,77.00000,9.30768,0.00000
114.00000,159.00000,136.00000,115.00000,84.00000,87.00000,64.00000,80.00000,9.33026,0.00000
125.00000,175.00000,146.00000,125.00000,83.00000,77.00000,61.00000,82.00000,9.35349,0.00000
131.00000,195.00000,159.00000,134.00000,87.00000,80.00000,59.00000,90.00000,9.36779,0.00000
137.00000,209.00000,157.00000,129.00000,82.00000,74.00000,60.00000,87.00000,9.38212,0.00000
136.00000,205.00000,156.00000,131.00000,79.00000,72.00000,56.00000,86.00000,9.40453,0.00000
132.00000,202.00000,152.00000,133.00000,76.00000,70.00000,56.00000,83.00000,9.42764,0.00000
128.00000,194.00000,147.00000,121.00000,72.00000,71.00000,49.00000,80.00000,9.44205,0.00000
125.00000,187.00000,129.00000,112.00000,74.00000,71.00000,57.00000,78.00000,9.46446,0.00000
124.00000,179.00000,128.00000,116.00000,79.00000,75.00000,54.00000,79.00000,9.48737,0.00000
122.00000,172.00000,127.00000,110.00000,78.00000,73.00000,52.00000,75.00000,9.50336,0.00000
121.00000,159.00000,125.00000,112.00000,80.00000,78.00000,54.00000,76.00000,9.52422,0.00000
117.00000,152.00000,120.00000,124.00000,90.00000,82.00000,61.00000,75.00000,9.54734,0.00000
112.00000,140.00000,120.00000,125.00000,87.00000,80.00000,56.00000,69.00000,9.56189,0.00000
112.00000,147.00000,124.00000,120.00000,86.00000,76.00000,57.00000,74.00000,9.58414,0.00000
110.00000,157.00000,129.00000,125.00000,84.00000,84.00000,64.00000,78.00000,9.60756,0.00000
119.00000,168.00000,138.00000,130.00000,85.00000,84.00000,62.00000,76.00000,9.62991,0.00000
123.00000,177.00000,143.00000,124.00000,83.00000,87.00000,57.00000,76.00000,9.64413,0.00000
130.00000,186.00000,151.00000,128.00000,79.00000,82.00000,54.00000,81.00000,9.66750,0.00000
135.00000,188.00000,153.00000,132.00000,81.00000,82.00000,57.00000,80.00000,9.68173,0.00000
138.00000,196.00000,153.00000,132.00000,80.00000,75.00000,57.00000,80.00000,9.70415,0.00000
134.00000,198.00000,151.00000,130.00000,81.00000,72.00000,58.00000,81.00000,9.72734,0.00000
137.00000,194.00000,147.00000,124.00000,76.00000,61.00000,58.00000,83.00000,9.74172,0.00000
134.00000,192.00000,141.00000,122.00000,80.00000,64.00000,61.00000,80.00000,9.76419,0.00000
122.00000,183.00000,132.00000,114.00000,74.00000,61.00000,55.00000,73.00000,9.78738,0.00000
115.00000,163.00000,119.00000,115.00000,77.00000,61.00000,54.00000,71.00000,9.80174,0.00000
111.00000,153.00000,111.00000,110.00000,76.00000,67.00000,51.00000,78.00000,9.82423,0.00000
98.00000,140.00000,100.00000,107.00000,79.00000,70.00000,51.00000,73.00000,9.85558,0.00000
91.00000,126.00000,95.00000,105.00000,78.00000,80.00000,60.00000,74.00000,9.87000,0.00000
87.00000,123.00000,103.00000,118.00000,87.00000,90.00000,72.00000,77.00000,9.88595,0.00000
89.00000,122.00000,114.00000,112.00000,90.00000,89.00000,72.00000,75.00000,9.90825,0.00000
87.00000,117.00000,111.00000,114.00000,85.00000,88.00000,74.00000,63.00000,9.92215,0.00000
95.00000,134.00000,123.00000,122.00000,86.00000,90.00000,79.00000,70.00000,9.94465,0.00000
102.00000,149.00000,135.00000,127.00000,89.00000,83.00000,76.00000,73.00000,9.96782,0.00000
113.00000,169.00000,143.00000,121.00000,78.00000,77.00000,68.00000,75.00000,9.98202,0.00000
124.00000,184.00000,144.00000,126.00000,78.00000,81.00000,66.00000,81.00000,10.00472,0.00000
127.00000,194.00000,149.00000,123.00000,80.00000,83.00000,68.00000,82.00000,10.02779,0.00000
124.00000,195.00000,149.00000,121.00000,77.00000,82.00000,62.00000,77.00000,10.04204,0.00000
128.00000,190.00000,144.00000,115.00000,74.00000,86.00000,62.00000,77.00000,10.06435,0.00000
123.00000,177.00000,132.00000,111.00000,76.00000,89.00000,63.00000,73.00000,10.08776,0.00000
119.00000,170.00000,128.00000,105.00000,67.00000,93.00000,67.00000,77.00000,10.10215,0.00000
119.00000,158.00000,128.00000,104.00000,74.00000,90.00000,64.00000,78.00000,10.12467,0.00000
120.00000,146.00000,124.00000,109.00000,90.00000,103.00000,74.00000,82.00000,10.14723,0.00000
120.00000,135.00000,127.00000,125.00000,99.00000,102.00000,76.00000,91.00000,10.17859,0.00000
118.00000,131.00000,132.00000,122.00000,101.00000,98.00000,76.00000,86.00000,10.20733,0.00000
123.00000,152.00000,139.00000,126.00000,100.00000,96.00000,77.00000,89.00000,10.23103,0.00000
132.00000,174.00000,155.00000,125.00000,88.00000,82.00000,71.00000,95.00000,10.24453,0.00000
137.00000,193.00000,165.00000,120.00000,85.00000,83.00000,76.00000,99.00000,10.26725,0.00000
144.00000,209.00000,169.00000,126.00000,86.00000,83.00000,74.00000,96.00000,10.29107,0.00000
144.00000,213.00000,166.00000,126.00000,86.00000,87.00000,76.00000,97.00000,10.30447,0.00000
149.00000,219.00000,170.00000,127.00000,89.00000,103.00000,84.00000,97.00000,10.32703,0.00000
151.00000,216.00000,167.00000,121.00000,88.00000,109.00000,88.00000,90.00000,10.35105,0.00000
153.00000,218.00000,169.00000,121.00000,93.00000,115.00000,89.00000,85.00000,10.36479,0.00000
150.00000,227.00000,178.00000,117.00000,93.00000,112.00000,90.00000,83.00000,10.38710,0.00000
153.00000,235.00000,187.00000,125.00000,93.00000,106.00000,85.00000,82.00000,10.41088,0.00000
141.00000,222.00000,180.00000,124.00000,87.00000,90.00000,76.00000,78.00000,10.42466,0.00000
129.00000,210.00000,168.00000,128.00000,89.00000,87.00000,74.00000,75.00000,10.45503,0.00000
103.00000,160.00000,123.00000,112.00000,80.00000,100.00000,73.00000,76.00000,10.47861,0.00000
96.00000,141.00000,98.00000,100.00000,81.00000,104.00000,80.00000,82.00000,10.50731,0.00000
100.00000,145.00000,90.00000,95.00000,79.00000,105.00000,86.00000,90.00000,10.53042,0.00000
109.00000,160.00000,98.00000,104.00000,83.00000,105.00000,81.00000,99.00000,10.55345,0.00000
117.00000,168.00000,110.00000,109.00000,82.00000,93.00000,82.00000,103.00000,10.56700,0.00000
120.00000,171.00000,114.00000,110.00000,81.00000,80.00000,77.00000,95.00000,10.59006,0.00000
123.00000,178.00000,126.00000,116.00000,76.00000,75.00000,73.00000,89.00000,10.60470,0.00000
124.00000,186.00000,139.00000,124.00000,79.00000,75.00000,69.00000,81.00000,10.62703,0.00000
119.00000,183.00000,144.00000,119.00000,67.00000,77.00000,76.00000,76.00000,10.65030,0.00000
117.00000,179.00000,137.00000,112.00000,69.00000,83.00000,78.00000,72.00000,10.66470,0.00000
109.00000,175.00000,134.00000,105.00000,68.00000,83.00000,83.00000,72.00000,10.68722,0.00000
101.00000,158.00000,120.00000,101.00000,72.00000,94.00000,85.00000,70.00000,10.70987,0.00000
86.00000,126.00000,94.00000,88.00000,72.00000,99.00000,88.00000,69.00000,10.74153,0.00000
74.00000,102.00000,69.00000,82.00000,78.00000,95.00000,84.00000,64.00000,10.75598,0.00000
73.00000,103.00000,67.00000,88.00000,75.00000,92.00000,80.00000,65.00000,10.77027,0.00000
80.00000,101.00000,79.00000,94.00000,80.00000,93.00000,68.00000,74.00000,10.78467,0.00000
99.00000,129.00000,96.00000,104.00000,80.00000,86.00000,66.00000,76.00000,10.80723,0.00000
111.00000,146.00000,111.00000,115.00000,82.00000,83.00000,60.00000,79.00000,10.83096,0.00000
119.00000,160.00000,124.00000,112.00000,78.00000,81.00000,59.00000,79.00000,10.85339,0.00000
121.00000,166.00000,133.00000,113.00000,80.00000,83.00000,58.00000,82.00000,10.86718,0.00000
122.00000,178.00000,139.00000,115.00000,74.00000,83.00000,62.00000,77.00000,10.89034,0.00000
112.00000,179.00000,134.00000,103.00000,71.00000,75.00000,64.00000,76.00000,10.90469,0.00000
115.00000,183.00000,131.00000,95.00000,67.00000,74.00000,64.00000,74.00000,10.92716,0.00000
115.00000,178.00000,117.00000,91.00000,66.00000,73.00000,66.00000,68.00000,10.95805,0.00000
115.00000,178.00000,117.00000,91.00000,66.00000,73.00000,66.00000,68.00000,10.97359,0.00000
114.00000,166.00000,104.00000,89.00000,65.00000,76.00000,66.00000,64.00000,10.99637,0.00000
113.00000,150.00000,96.00000,87.00000,67.00000,83.00000,62.00000,61.00000,11.01810,0.00000
101.00000,136.00000,92.00000,83.00000,69.00000,88.00000,63.00000,63.00000,11.03320,0.00000
94.00000,128.00000,92.00000,85.00000,78.00000,94.00000,66.00000,66.00000,11.04684,0.00000
93.00000,133.00000,94.00000,90.00000,78.00000,92.00000,68.00000,71.00000,11.06935,0.00000
97.00000,142.00000,98.00000,92.00000,76.00000,92.00000,65.00000,76.00000,11.09326,0.00000
95.00000,145.00000,106.00000,96.00000,78.00000,94.00000,66.00000,77.00000,11.10777,0.00000
108.00000,157.00000,118.00000,104.00000,79.00000,94.00000,73.00000,77.00000,11.12965,0.00000
116.00000,165.00000,125.00000,108.00000,69.00000,91.00000,66.00000,80.00000,11.15359,0.00000
119.00000,184.00000,134.00000,115.00000,77.00000,93.00000,69.00000,84.00000,11.16722,0.00000
121.00000,196.00000,139.00000,114.00000,80.00000,93.00000,74.00000,83.00000,11.18940,0.00000
128.00000,203.00000,143.00000,118.00000,74.00000,89.00000,74.00000,82.00000,11.21349,0.00000
119.00000,202.00000,139.00000,112.00000,70.00000,81.00000,63.00000,82.00000,11.22728,0.00000
119.00000,198.00000,136.00000,115.00000,83.00000,82.00000,68.00000,77.00000,11.24969,0.00000
120.00000,179.00000,128.00000,112.00000,80.00000,83.00000,69.00000,78.00000,11.27417,0.00000
120.00000,159.00000,119.00000,108.00000,77.00000,82.00000,67.00000,76.00000,11.29585,0.00000
111.00000,152.00000,114.00000,110.00000,85.00000,83.00000,70.00000,81.00000,11.30972,0.00000
111.00000,141.00000,105.00000,108.00000,85.00000,85.00000,76.00000,77.00000,11.33352,0.00000
106.00000,131.00000,102.00000,100.00000,74.00000,82.00000,73.00000,80.00000,11.34721,0.00000
94.00000,129.00000,97.00000,98.00000,77.00000,83.00000,70.00000,75.00000,11.36968,0.00000
87.00000,133.00000,101.00000,107.00000,80.00000,83.00000,71.00000,81.00000,11.39268,0.00000
99.00000,141.00000,107.00000,108.00000,76.00000,79.00000,73.00000,81.00000,11.40715,0.00000
109.00000,159.00000,113.00000,112.00000,78.00000,81.00000,69.00000,80.00000,11.42972,0.00000
117.00000,174.00000,124.00000,112.00000,80.00000,79.00000,66.00000,80.00000,11.45288,0.00000
129.00000,190.00000,137.00000,111.00000,73.00000,74.00000,63.00000,82.00000,11.46712,0.00000
131.00000,193.00000,140.00000,105.00000,82.00000,72.00000,62.00000,73.00000,11.48969,0.00000
127.00000,198.00000,135.00000,105.00000,83.00000,77.00000,58.00000,71.00000,11.51288,0.00000
122.00000,191.00000,136.00000,101.00000,80.00000,72.00000,59.00000,72.00000,11.52715,0.00000
120.00000,184.00000,129.00000,98.00000,78.00000,75.00000,62.00000,73.00000,11.55025,0.00000
113.00000,171.00000,119.00000,94.00000,80.00000,79.00000,65.00000,74.00000,11.57354,0.00000
